#scan;iMeasureCycle=1;iMux=0;time=0.141;N=482;LocalTime=31/10/2023 16:08:32;;;
#VGate(V);IGate(A);time(s);VDrain(V);IDrain(A);time(s);;;Idrain^1/2 (A^1/2)
-60;-1.06E-09;0.301821;0.999999;1.58E-11;0.301821;;;3.97492E-06
-59.5;-9.08E-10;0.47881;1;1.01E-11;0.47881;;;3.17805E-06
-59.0001;-8.20E-10;0.655384;0.999999;1.06E-11;0.655384;;;3.25576E-06
-58.5001;-7.28E-10;0.849802;0.999999;7.83E-12;0.849802;;;2.79821E-06
-58;-6.70E-10;1.026435;1;8.63E-12;1.026435;;;2.93769E-06
-57.5;-6.26E-10;1.202957;1;4.85E-12;1.202957;;;2.20227E-06
-57;-5.99E-10;1.413995;0.999999;7.84E-12;1.413995;;;0.0000028
-56.5;-5.54E-10;1.590655;1;3.29E-12;1.590655;;;1.81384E-06
-56;-5.26E-10;1.767184;0.999999;4.20E-12;1.767184;;;2.04939E-06
-55.5;-4.93E-10;1.943874;1;4.60E-13;1.943874;;;6.78233E-07
-55;-4.82E-10;2.120416;1;3.34E-12;2.120416;;;1.82757E-06
-54.5;-4.60E-10;2.296962;0.999999;1.00E-13;2.296962;;;3.16228E-07
-54;-4.39E-10;2.475284;0.999999;2.21E-12;2.475284;;;1.48661E-06
-53.5;-4.19E-10;2.651787;1;6.30E-13;2.651787;;;7.93725E-07
-53;-4.06E-10;2.828342;1.000001;1.01E-12;2.828342;;;1.00499E-06
-52.5;-3.96E-10;3.012806;1;-2.30E-13;3.012806;;;0
-52.0001;-3.82E-10;3.189304;1;-1.40E-13;3.189304;;;0
-51.5;-3.63E-10;3.395391;1;-3.09E-12;3.395391;;;0
-51;-3.57E-10;3.572066;0.999999;-1.26E-12;3.572066;;;0
-50.5001;-3.51E-10;3.748594;0.999999;3.47E-12;3.748594;;;1.86279E-06
-50.0001;-3.27E-10;3.925456;1;-7.20E-13;3.925456;;;0
-49.5;-3.16E-10;4.101996;1;-1.76E-12;4.101996;;;0
-49;-3.12E-10;4.278516;1;-5.90E-13;4.278516;;;0
-48.5;-3.07E-10;4.457147;1;1.02E-12;4.457147;;;1.00995E-06
-48.0001;-2.85E-10;4.633549;1;-2.51E-12;4.633549;;;0
-47.5;-2.82E-10;4.810152;0.999999;-1.41E-12;4.810152;;;0
-47.0001;-2.81E-10;4.988391;1;-2.80E-13;4.988391;;;0
-46.5;-2.79E-10;5.165023;1;1.99E-12;5.165023;;;1.41067E-06
-46;-2.66E-10;5.365339;1;-9.00E-14;5.365339;;;0
-45.5001;-2.57E-10;5.542026;0.999999;1.33E-12;5.542026;;;1.15326E-06
-45.0001;-2.46E-10;5.718584;1;-2.00E-14;5.718584;;;0
-44.5;-2.39E-10;5.925179;0.999999;-1.03E-12;5.925179;;;0
-44.0001;-2.22E-10;6.101568;0.999999;-4.26E-12;6.101568;;;0
-43.5;-2.27E-10;6.278061;0.999999;1.70E-13;6.278061;;;4.12311E-07
-43.0001;-2.22E-10;6.454563;1;-1.37E-12;6.454563;;;0
-42.5001;-2.09E-10;6.630911;1;-3.76E-12;6.630911;;;0
-42.0001;-2.13E-10;6.80742;1;8.60E-13;6.80742;;;9.27362E-07
-41.4999;-1.98E-10;6.985316;0.999999;-8.50E-13;6.985316;;;0
-41.0001;-1.94E-10;7.161808;0.999999;-2.43E-12;7.161808;;;0
-40.5;-1.96E-10;7.338257;1;-7.00E-14;7.338257;;;0
-40;-1.81E-10;7.527121;0.999999;-2.71E-12;7.527121;;;0
-39.5;-1.83E-10;7.703405;1;2.20E-13;7.703405;;;4.69042E-07
-39.0001;-1.74E-10;7.905438;0.999999;-2.59E-12;7.905438;;;0
-38.5001;-1.72E-10;8.081767;0.999999;-4.30E-13;8.081767;;;0
-38.0001;-1.67E-10;8.258033;0.999999;1.90E-13;8.258033;;;4.3589E-07
-37.5001;-1.62E-10;8.439931;0.999999;-7.40E-13;8.439931;;;0
-37.0001;-1.55E-10;8.616175;0.999999;-1.19E-12;8.616175;;;0
-36.5001;-1.51E-10;8.792426;1;0;8.792426;;;0
-36;-1.43E-10;8.968837;1;-2.55E-12;8.968837;;;0
-35.5;-1.45E-10;9.145274;0.999999;5.40E-13;9.145274;;;7.34847E-07
-35.0001;-1.38E-10;9.321539;0.999999;-1.36E-12;9.321539;;;0
-34.5;-1.33E-10;9.499685;1;-1.30E-13;9.499685;;;0
-34.0001;-1.26E-10;9.675964;0.999999;-1.10E-12;9.675964;;;0
-33.5001;-1.18E-10;9.852271;0.999999;-3.01E-12;9.852271;;;0
-33.0001;-1.15E-10;10.034034;0.999999;-1.58E-12;10.034034;;;0
-32.5001;-1.11E-10;10.210295;0.999999;-2.21E-12;10.210295;;;0
-32;-1.11E-10;10.412321;1;-1.71E-12;10.412321;;;0
-31.5;-1.01E-10;10.588787;0.999999;-3.92E-12;10.588787;;;0
-31;-9.97E-11;10.765073;0.999999;-2.43E-12;10.765073;;;0
-30.5001;-8.92E-11;10.942217;1;-2.97E-12;10.942217;;;0
-30;-8.68E-11;11.118503;1;-3.14E-12;11.118503;;;0
-29.5001;-8.87E-11;11.294856;0.999999;-1.54E-12;11.294856;;;0
-29;-9.20E-11;11.471184;1;1.58E-12;11.471184;;;1.25698E-06
-28.5;-7.46E-11;11.647447;1;-5.15E-12;11.647447;;;0
-28;-7.37E-11;11.823749;1;-2.28E-12;11.823749;;;0
-27.5;-7.25E-11;12.000233;0.999999;-1.20E-12;12.000233;;;0
-27;-6.65E-11;12.176625;0.999999;-1.81E-12;12.176625;;;0
-26.5;-6.47E-11;12.352868;1;-1.02E-12;12.352868;;;0
-26;-6.38E-11;12.540896;1;-4.60E-13;12.540896;;;0
-25.5001;-5.51E-11;12.717113;0.999999;-1.72E-12;12.717113;;;0
-25;-5.75E-11;12.94079;0.999999;-2.70E-13;12.94079;;;0
-24.5;-5.44E-11;13.117414;1;1.03E-12;13.117414;;;1.01489E-06
-24.0001;-5.14E-11;13.293655;0.999999;9.70E-13;13.293655;;;9.84886E-07
-23.5001;-4.83E-11;13.469872;0.999999;1.45E-12;13.469872;;;1.20416E-06
-23;-3.69E-11;13.646149;1;-2.10E-12;13.646149;;;0
-22.5;-4.39E-11;13.822315;0.999999;2.97E-12;13.822315;;;1.72337E-06
-22;-3.78E-11;13.99862;1;3.31E-12;13.99862;;;1.81934E-06
-21.5;-2.76E-11;14.174838;1;9.50E-13;14.174838;;;9.74679E-07
-21.0001;-2.69E-11;14.351046;1;3.46E-12;14.351046;;;1.86011E-06
-20.5;-2.08E-11;14.547238;0.999999;1.93E-12;14.547238;;;1.38924E-06
-20.0001;-1.59E-11;14.723439;0.999999;2.92E-12;14.723439;;;1.7088E-06
-19.5001;-2.17E-11;14.929507;0.999999;6.52E-12;14.929507;;;2.55343E-06
-19.0001;-1.37E-11;15.105728;1.000001;7.87E-12;15.105728;;;2.80535E-06
-18.5;-1.50E-11;15.28181;1;1.05E-11;15.28181;;;3.24037E-06
-18;-2.69E-12;15.459495;0.999999;9.20E-12;15.459495;;;3.03315E-06
-17.5;-7.48E-12;15.635529;1;1.46E-11;15.635529;;;3.82099E-06
-17;4.22E-12;15.811576;1;1.28E-11;15.811576;;;3.57771E-06
-16.5;1.33E-12;15.987744;0.999999;1.87E-11;15.987744;;;4.32435E-06
-16;2.33E-12;16.163834;0.999999;2.38E-11;16.163834;;;4.87852E-06
-15.5;4.73E-12;16.339812;1;2.56E-11;16.339812;;;5.05964E-06
-15;1.57E-11;16.517781;0.999999;2.78E-11;16.517781;;;5.27257E-06
-14.5001;1.10E-11;16.693821;0.999999;3.55E-11;16.693821;;;5.95819E-06
-14;2.31E-11;16.869845;1;3.85E-11;16.869845;;;6.20484E-06
-13.5;2.57E-11;17.053115;1;4.19E-11;17.053115;;;6.47302E-06
-13.0001;2.49E-11;17.229219;1;5.07E-11;17.229219;;;7.12039E-06
-12.5;2.77E-11;17.432417;1;5.83E-11;17.432417;;;7.63544E-06
-12;2.67E-11;17.608472;1;6.92E-11;17.608472;;;8.31865E-06
-11.5001;3.09E-11;17.784555;1;7.91E-11;17.784555;;;8.89382E-06
-11;3.65E-11;17.962145;1;9.50E-11;17.962145;;;9.74679E-06
-10.5;4.00E-11;18.138247;1;9.00E-11;18.138247;;;9.48683E-06
-10.0001;3.15E-11;18.314295;0.999999;1.10E-10;18.314295;;;1.04881E-05
-9.5001;4.05E-11;18.490381;1;1.18E-10;18.490381;;;1.08628E-05
-9;4.07E-11;18.666527;1;1.31E-10;18.666527;;;1.14455E-05
-8.5;4.31E-11;18.842601;0.999999;1.51E-10;18.842601;;;1.22882E-05
-8;5.08E-11;19.018664;0.999999;1.74E-10;19.018664;;;1.31909E-05
-7.5001;5.38E-11;19.194782;0.999999;2.52E-10;19.194782;;;1.58745E-05
-7.0001;5.55E-11;19.370772;0.999999;2.16E-10;19.370772;;;1.46969E-05
-6.5001;5.21E-11;19.560992;0.999999;2.43E-10;19.560992;;;1.55885E-05
-6;5.84E-11;19.736998;0.999999;2.68E-10;19.736998;;;1.63707E-05
-5.5001;6.00E-11;19.939225;0.999999;2.73E-10;19.939225;;;1.65227E-05
-5;6.48E-11;20.115414;1;3.17E-10;20.115414;;;1.78045E-05
-4.5001;6.30E-11;20.291432;0.999999;4.37E-10;20.291432;;;2.09045E-05
-4.0001;7.02E-11;20.468942;1;4.44E-10;20.468942;;;2.10713E-05
-3.5001;6.89E-11;20.645041;0.999999;4.78E-10;20.645041;;;2.18632E-05
-3;7.32E-11;20.821118;1;5.76E-10;20.821118;;;0.000024
-2.5001;7.95E-11;20.997273;1.000001;5.86E-10;20.997273;;;2.42074E-05
-2.0001;7.82E-11;21.173462;0.999999;6.40E-10;21.173462;;;2.52982E-05
-1.5;7.84E-11;21.349517;1;7.13E-10;21.349517;;;2.67021E-05
-1.0001;8.12E-11;21.525558;1;8.01E-10;21.525558;;;2.83019E-05
-0.5;8.08E-11;21.701616;1;8.40E-10;21.701616;;;2.89828E-05
-0.0001;8.66E-11;21.877706;1;9.70E-10;21.877706;;;3.11448E-05
0.4999;8.47E-11;22.067916;1;8.82E-10;22.067916;;;2.96985E-05
1;9.25E-11;22.243959;1;9.27E-10;22.243959;;;3.04467E-05
1.5;9.14E-11;22.446355;1;1.06E-09;22.446355;;;3.25576E-05
2;9.10E-11;22.622457;0.999999;1.25E-09;22.622457;;;3.53553E-05
2.5;9.54E-11;22.79861;1;1.26E-09;22.79861;;;3.54965E-05
2.9999;9.53E-11;22.975868;1;1.48E-09;22.975868;;;3.84708E-05
3.5;9.99E-11;23.152131;1.000001;1.59E-09;23.152131;;;3.98748E-05
4;1.08E-10;23.32816;1;1.72E-09;23.32816;;;4.14729E-05
4.4999;1.11E-10;23.504292;0.999999;1.90E-09;23.504292;;;4.3589E-05
4.9999;1.13E-10;23.680429;0.999999;2.12E-09;23.680429;;;4.60435E-05
5.5;1.17E-10;23.856481;1.000001;2.38E-09;23.856481;;;4.87852E-05
6;1.17E-10;24.032781;1.000002;2.65E-09;24.032781;;;5.14782E-05
6.5;1.18E-10;24.208865;0.999998;3.14E-09;24.208865;;;5.60357E-05
7;1.16E-10;24.384927;1;3.63E-09;24.384927;;;6.02495E-05
7.5;1.25E-10;24.574007;1.000001;3.85E-09;24.574007;;;6.20484E-05
8;1.27E-10;24.750125;0.999997;4.08E-09;24.750125;;;6.38749E-05
8.5;1.24E-10;24.957629;0.999999;4.82E-09;24.957629;;;6.94262E-05
8.9999;1.25E-10;25.133792;0.999996;5.47E-09;25.133792;;;7.39594E-05
9.5;1.33E-10;25.309841;1.000002;5.95E-09;25.309841;;;7.71362E-05
10;1.35E-10;25.487168;0.999997;7.13E-09;25.487168;;;8.44393E-05
10.4999;1.37E-10;25.663245;0.999993;7.00E-09;25.663245;;;8.3666E-05
10.9999;1.38E-10;25.839273;1.000001;6.30E-09;25.839273;;;7.93725E-05
11.4999;1.36E-10;26.015404;1.000002;7.11E-09;26.015404;;;8.43208E-05
12;1.43E-10;26.191476;0.999997;7.40E-09;26.191476;;;8.60233E-05
12.4999;1.46E-10;26.367631;1.000002;7.86E-09;26.367631;;;8.86566E-05
13;1.53E-10;26.545443;1.000003;8.94E-09;26.545443;;;9.45516E-05
13.4999;1.52E-10;26.694069;1;9.27E-09;26.694069;;;9.62808E-05
13.9999;1.58E-10;26.864216;1.000004;1.07E-08;26.864216;;;0.000103441
14.5;1.58E-10;27.014107;1.000003;1.21E-08;27.014107;;;0.00011
15;1.65E-10;27.164027;0.999994;1.35E-08;27.164027;;;0.00011619
15.4999;1.70E-10;27.31397;0.999993;1.54E-08;27.31397;;;0.000124097
15.9999;1.72E-10;27.466595;1.000009;1.84E-08;27.466595;;;0.000135647
16.4999;1.71E-10;27.616487;1.000002;1.87E-08;27.616487;;;0.000136748
16.9999;1.76E-10;27.766358;0.999991;1.68E-08;27.766358;;;0.000129615
17.4999;1.73E-10;27.941455;0.999997;1.89E-08;27.941455;;;0.000137477
17.9999;1.75E-10;28.091298;1.000012;2.08E-08;28.091298;;;0.000144222
18.5;1.83E-10;28.241167;0.999998;1.95E-08;28.241167;;;0.000139642
19;1.86E-10;28.391004;1.000005;2.19E-08;28.391004;;;0.000147986
19.4999;1.86E-10;28.558393;1;2.56E-08;28.558393;;;0.00016
20;1.89E-10;28.708156;1.000012;2.75E-08;28.708156;;;0.000165831
20.4999;1.95E-10;28.858159;1.000007;2.84E-08;28.858159;;;0.000168523
21;1.95E-10;29.007977;0.999993;3.12E-08;29.007977;;;0.000176635
21.5;2.00E-10;29.15801;1.000006;3.35E-08;29.15801;;;0.00018303
22;2.02E-10;29.307938;1.000024;3.92E-08;29.307938;;;0.00019799
22.4999;2.05E-10;29.471516;0.99999;3.94E-08;29.471516;;;0.000198494
23;2.17E-10;29.621526;1.00002;4.49E-08;29.621526;;;0.000211896
23.4999;2.20E-10;29.771548;1.000005;4.70E-08;29.771548;;;0.000216795
24;2.20E-10;29.946791;0.999992;5.37E-08;29.946791;;;0.000231733
24.5;2.14E-10;30.096823;0.999997;5.20E-08;30.096823;;;0.000228035
24.9999;2.20E-10;30.246814;0.999999;5.60E-08;30.246814;;;0.000236643
25.4999;2.19E-10;30.396802;0.999992;6.12E-08;30.396802;;;0.000247386
25.9999;2.31E-10;30.56375;1.000015;6.51E-08;30.56375;;;0.000255147
26.5;2.28E-10;30.71371;1.000007;6.65E-08;30.71371;;;0.000257876
27;2.35E-10;30.863865;1.00001;7.36E-08;30.863865;;;0.000271293
27.5;2.40E-10;31.013872;1.000011;7.62E-08;31.013872;;;0.000276043
27.9999;2.39E-10;31.163941;1.000021;7.78E-08;31.163941;;;0.000278927
28.5;2.40E-10;31.313941;1.000006;8.11E-08;31.313941;;;0.000284781
28.9999;2.39E-10;31.476484;0.999988;8.75E-08;31.476484;;;0.000295804
29.5;2.42E-10;31.626536;1.000041;9.17E-08;31.626536;;;0.00030282
29.9999;2.51E-10;31.776592;0.999989;9.72E-08;31.776592;;;0.000311769
30.5;2.48E-10;31.957403;0.999999;1.01E-07;31.957403;;;0.000317805
31;2.56E-10;32.107452;0.999999;1.02E-07;32.107452;;;0.000319374
31.5;2.53E-10;32.257595;1;1.11E-07;32.257595;;;0.000333167
32;2.54E-10;32.407686;0.999999;1.15E-07;32.407686;;;0.000339116
32.5;2.62E-10;32.568628;1;1.21E-07;32.568628;;;0.000347851
33;2.70E-10;32.718639;0.999999;1.28E-07;32.718639;;;0.000357771
33.5;2.68E-10;32.868792;1;1.37E-07;32.868792;;;0.000370135
33.9999;2.72E-10;33.018855;1;1.40E-07;33.018855;;;0.000374166
34.4999;2.74E-10;33.169033;1;1.61E-07;33.169033;;;0.000401248
34.9999;2.91E-10;33.319108;0.999999;1.61E-07;33.319108;;;0.000401248
35.5;2.90E-10;33.481459;1;1.72E-07;33.481459;;;0.000414729
35.9999;2.92E-10;33.631554;1;1.79E-07;33.631554;;;0.000423084
36.5;2.99E-10;33.781652;0.999999;1.90E-07;33.781652;;;0.00043589
36.9999;3.06E-10;33.953533;1;1.84E-07;33.953533;;;0.000428952
37.5;3.10E-10;34.10363;1;1.96E-07;34.10363;;;0.000442719
37.9999;3.11E-10;34.25377;0.999999;2.05E-07;34.25377;;;0.000452769
38.5;3.11E-10;34.403934;1;2.14E-07;34.403934;;;0.000462601
39;3.06E-10;34.573675;0.999998;2.33E-07;34.573675;;;0.000482701
39.5;3.10E-10;34.723823;1;2.35E-07;34.723823;;;0.000484768
40;3.12E-10;34.874038;1;2.56E-07;34.874038;;;0.000505964
40.5;3.16E-10;35.02422;1;2.56E-07;35.02422;;;0.000505964
41;3.13E-10;35.174415;1;2.73E-07;35.174415;;;0.000522494
41.4999;3.13E-10;35.324619;1.000001;2.84E-07;35.324619;;;0.000532917
41.9999;3.24E-10;35.486638;1;2.90E-07;35.486638;;;0.000538516
42.4999;3.32E-10;35.63681;0.999999;3.00E-07;35.63681;;;0.000547723
42.9999;3.28E-10;35.786952;0.999999;3.15E-07;35.786952;;;0.000561249
43.4999;3.28E-10;35.961663;0.999999;3.34E-07;35.961663;;;0.000577927
43.9999;3.37E-10;36.111905;1.000001;3.53E-07;36.111905;;;0.000594138
44.4999;3.41E-10;36.262004;1;3.61E-07;36.262004;;;0.000600833
45;3.45E-10;36.412302;1;3.84E-07;36.412302;;;0.000619677
45.5;3.49E-10;36.578795;0.999999;3.86E-07;36.578795;;;0.000621289
45.9999;3.47E-10;36.728985;0.999999;4.08E-07;36.728985;;;0.000638749
46.5;3.54E-10;36.879172;0.999999;4.10E-07;36.879172;;;0.000640312
47;3.52E-10;37.029338;1;4.26E-07;37.029338;;;0.000652687
47.4999;3.54E-10;37.179597;0.999999;4.39E-07;37.179597;;;0.000662571
47.9999;3.65E-10;37.329869;0.999999;4.65E-07;37.329869;;;0.000681909
48.4999;3.61E-10;37.48745;0.999999;4.80E-07;37.48745;;;0.00069282
49;3.69E-10;37.637739;1.000001;5.12E-07;37.637739;;;0.000715542
49.4999;3.66E-10;37.787928;1;5.36E-07;37.787928;;;0.00073212
49.9999;3.58E-10;37.966622;1;5.50E-07;37.966622;;;0.00074162
50.5;3.68E-10;38.116856;0.999999;6.02E-07;38.116856;;;0.000775887
50.9999;3.66E-10;38.267092;1;6.22E-07;38.267092;;;0.00078867
51.4999;3.70E-10;38.417448;1;6.36E-07;38.417448;;;0.000797496
51.9999;3.75E-10;38.58385;1;6.75E-07;38.58385;;;0.000821584
52.5;3.68E-10;38.734127;1.000001;6.97E-07;38.734127;;;0.000834865
53;3.79E-10;38.884382;0.999999;7.27E-07;38.884382;;;0.000852643
53.4999;3.86E-10;39.034664;1.000001;7.52E-07;39.034664;;;0.000867179
53.9999;3.88E-10;39.185021;0.999999;7.60E-07;39.185021;;;0.00087178
54.5;3.91E-10;39.335311;1.000002;7.87E-07;39.335311;;;0.00088713
55;3.93E-10;39.49759;1.000001;8.16E-07;39.49759;;;0.000903327
55.4999;3.88E-10;39.647888;0.999997;8.80E-07;39.647888;;;0.000938083
56;3.89E-10;39.798224;0.999999;9.35E-07;39.798224;;;0.000966954
56.5;3.98E-10;39.972499;0.999999;9.50E-07;39.972499;;;0.000974679
57;3.93E-10;40.122833;1.000001;9.63E-07;40.122833;;;0.000981326
57.4999;4.02E-10;40.294983;1;1.01E-06;40.294983;;;0.001004988
58;3.91E-10;40.47305;1;1.02E-06;40.47305;;;0.00100995
58.5;4.02E-10;40.623451;1;1.07E-06;40.623451;;;0.001034408
58.9999;4.00E-10;40.773865;1;1.10E-06;40.773865;;;0.001048809
59.4999;4.00E-10;40.924131;1;1.15E-06;40.924131;;;0.001072381
59.9999;4.08E-10;41.09018;1;1.17E-06;41.09018;;;0.001081665
59.9999;4.00E-10;41.212555;1;1.16E-06;41.212555;;;0.001077033
59.4999;3.77E-10;41.36294;1;1.11E-06;41.36294;;;0.001053565
59;3.63E-10;41.513326;1;1.06E-06;41.513326;;;0.001029563
58.5;3.48E-10;41.663654;1;1.02E-06;41.663654;;;0.00100995
58;3.35E-10;41.814002;1;1.01E-06;41.814002;;;0.001004988
57.5;3.25E-10;41.9963;1;9.54E-07;41.9963;;;0.000976729
56.9999;3.10E-10;42.149588;1.000001;8.99E-07;42.149588;;;0.000948156
56.4999;2.96E-10;42.299863;0.999997;8.52E-07;42.299863;;;0.000923038
55.9999;2.95E-10;42.478033;1;8.07E-07;42.478033;;;0.000898332
55.4999;2.86E-10;42.628412;1;7.48E-07;42.628412;;;0.00086487
55;2.75E-10;42.77879;0.999998;7.26E-07;42.77879;;;0.000852056
54.5;2.75E-10;42.9291;1.000001;7.00E-07;42.9291;;;0.00083666
54;2.64E-10;43.094954;1.000001;6.66E-07;43.094954;;;0.000816088
53.5;2.57E-10;43.245225;0.999998;6.22E-07;43.245225;;;0.00078867
52.9999;2.50E-10;43.39545;0.999998;6.22E-07;43.39545;;;0.00078867
52.4999;2.40E-10;43.545666;0.999997;5.75E-07;43.545666;;;0.000758288
51.9999;2.39E-10;43.696017;1;5.37E-07;43.696017;;;0.000732803
51.5;2.26E-10;43.846548;0.999999;5.35E-07;43.846548;;;0.000731437
51;2.24E-10;44.008848;1.000002;4.95E-07;44.008848;;;0.000703562
50.4999;2.11E-10;44.159097;1;4.79E-07;44.159097;;;0.000692098
50;2.10E-10;44.309438;1.000003;4.57E-07;44.309438;;;0.000676018
49.5;1.98E-10;44.483434;0.999999;4.18E-07;44.483434;;;0.000646529
48.9999;2.01E-10;44.633773;0.999999;4.18E-07;44.633773;;;0.000646529
48.4999;1.87E-10;44.784063;1.000001;3.98E-07;44.784063;;;0.000630872
48;1.82E-10;44.934244;1;3.71E-07;44.934244;;;0.000609098
47.4999;1.73E-10;45.100156;1.000001;3.72E-07;45.100156;;;0.000609918
47;1.67E-10;45.250332;1;3.36E-07;45.250332;;;0.000579655
46.5;1.52E-10;45.400485;1;3.22E-07;45.400485;;;0.00056745
46;1.44E-10;45.550664;1;3.21E-07;45.550664;;;0.000566569
45.5;1.42E-10;45.700947;1;2.93E-07;45.700947;;;0.000541295
45;1.27E-10;45.851509;0.999999;2.87E-07;45.851509;;;0.000535724
44.4999;1.28E-10;46.013878;0.999999;2.75E-07;46.013878;;;0.000524404
43.9999;1.24E-10;46.164169;1.000001;2.50E-07;46.164169;;;0.0005
43.5;1.11E-10;46.314386;1;2.33E-07;46.314386;;;0.000482701
43;1.18E-10;46.505132;1;2.21E-07;46.505132;;;0.000470106
42.4999;1.08E-10;46.655317;1;2.19E-07;46.655317;;;0.000467974
41.9999;1.03E-10;46.805447;0.999999;1.97E-07;46.805447;;;0.000443847
41.4999;1.02E-10;46.988278;1.000001;1.96E-07;46.988278;;;0.000442719
41;9.49E-11;47.138456;0.999999;1.69E-07;47.138456;;;0.000411096
40.4999;8.92E-11;47.288627;1.000001;1.69E-07;47.288627;;;0.000411096
39.9999;8.49E-11;47.438796;1;1.56E-07;47.438796;;;0.000394968
39.5;7.97E-11;47.606224;1;1.50E-07;47.606224;;;0.000387298
38.9999;8.27E-11;47.756394;1;1.39E-07;47.756394;;;0.000372827
38.5;6.83E-11;47.90655;0.999999;1.34E-07;47.90655;;;0.00036606
37.9999;6.76E-11;48.056646;1;1.17E-07;48.056646;;;0.000342053
37.4999;6.24E-11;48.206785;0.999999;1.12E-07;48.206785;;;0.000334664
37;6.28E-11;48.356875;1;1.08E-07;48.356875;;;0.000328634
36.5;6.19E-11;48.519582;1;1.02E-07;48.519582;;;0.000319374
35.9999;6.16E-11;48.669674;1;9.71E-08;48.669674;;;0.000311609
35.4999;6.90E-11;48.837044;0.999987;8.90E-08;48.837044;;;0.000298329
34.9999;6.47E-11;49.046387;1.000011;8.51E-08;49.046387;;;0.000291719
34.5;6.50E-11;49.196544;0.999949;8.46E-08;49.196544;;;0.000290861
33.9999;6.19E-11;49.346567;1.000019;7.19E-08;49.346567;;;0.000268142
33.5;5.91E-11;49.522244;1.000003;6.65E-08;49.522244;;;0.000257876
32.9999;5.23E-11;49.672408;0.999983;6.38E-08;49.672408;;;0.000252587
32.4999;4.65E-11;49.822467;1.000015;5.86E-08;49.822467;;;0.000242074
32;5.54E-11;49.997367;1.000001;5.36E-08;49.997367;;;0.000231517
31.4999;4.90E-11;50.147448;1.000002;4.88E-08;50.147448;;;0.000220907
30.9999;4.32E-11;50.297564;1.000009;4.83E-08;50.297564;;;0.000219773
30.4999;3.89E-11;50.447663;1.000002;4.29E-08;50.447663;;;0.000207123
30;3.57E-11;50.613724;1.000004;4.14E-08;50.613724;;;0.00020347
29.5;3.60E-11;50.763723;0.999999;3.57E-08;50.763723;;;0.000188944
28.9999;3.22E-11;50.913802;1.000008;2.96E-08;50.913802;;;0.000172047
28.5;2.83E-11;51.063772;0.999991;2.96E-08;51.063772;;;0.000172047
28;2.08E-11;51.213919;0.999999;2.64E-08;51.213919;;;0.000162481
27.4999;1.97E-11;51.363966;1.000011;2.41E-08;51.363966;;;0.000155242
27;1.33E-11;51.527362;1.000003;2.24E-08;51.527362;;;0.000149666
26.4999;7.36E-12;51.677379;1.000001;2.10E-08;51.677379;;;0.000144914
25.9999;1.07E-11;51.827371;1.000004;2.00E-08;51.827371;;;0.000141421
25.4999;9.67E-12;52.002715;1;1.77E-08;52.002715;;;0.000133041
25;9.05E-12;52.152734;0.999998;1.72E-08;52.152734;;;0.000131149
24.5;7.80E-13;52.302919;1.000004;1.45E-08;52.302919;;;0.000120416
24;-5.29E-12;52.452924;1.000004;1.26E-08;52.452924;;;0.00011225
23.5;-2.36E-12;52.618704;0.999998;1.11E-08;52.618704;;;0.000105357
23;-9.61E-12;52.768651;1;9.64E-09;52.768651;;;9.81835E-05
22.4999;-5.10E-12;52.933613;0.999999;8.44E-09;52.933613;;;9.18695E-05
