#scan;iMeasureCycle=1;iMux=0;time=0.141;N=482;LocalTime=31/10/2023 14:07:50;;;;|IDrain|, |IGate| (A);
#VGate(V);IGate(A);time(s);VDrain(V);IDrain(A);time(s);;Idrain^1/2;;;
-60;-5.08E-09;0.301662;1;3.03E-09;0.301662;;5.50E-05;;3.03E-09;5.08E-09
-59.5;-4.25E-09;0.47867;1.000001;2.46E-09;0.47867;;4.96E-05;;2.46E-09;4.25E-09
-59;-3.67E-09;0.65516;1;2.06E-09;0.65516;;4.54E-05;;2.06E-09;3.67E-09
-58.5;-3.24E-09;0.849801;1;1.75E-09;0.849801;;4.18E-05;;1.75E-09;3.24E-09
-58;-2.90E-09;1.026576;1;1.54E-09;1.026576;;3.92E-05;;1.54E-09;2.9E-09
-57.5;-2.63E-09;1.203181;1;1.38E-09;1.203181;;3.71E-05;;1.38E-09;2.63E-09
-57;-2.38E-09;1.411787;0.999999;1.22E-09;1.411787;;3.49E-05;;1.22E-09;2.38E-09
-56.5001;-2.21E-09;1.58842;0.999999;1.09E-09;1.58842;;3.30E-05;;1.09E-09;2.21E-09
-56;-2.05E-09;1.764992;0.999999;9.97E-10;1.764992;;3.16E-05;;9.97E-10;2.05E-09
-55.5;-1.91E-09;1.941562;0.999999;9.17E-10;1.941562;;3.03E-05;;9.17E-10;1.91E-09
-55.0001;-1.79E-09;2.118152;1;8.39E-10;2.118152;;2.90E-05;;8.39E-10;1.79E-09
-54.5001;-1.68E-09;2.29474;1;7.77E-10;2.29474;;2.79E-05;;7.77E-10;1.68E-09
-54.0001;-1.57E-09;2.471339;0.999999;7.11E-10;2.471339;;2.67E-05;;7.11E-10;1.57E-09
-53.5001;-1.48E-09;2.647832;1;6.64E-10;2.647832;;2.58E-05;;6.64E-10;1.48E-09
-53.0001;-1.41E-09;2.824451;1;6.12E-10;2.824451;;2.47E-05;;6.12E-10;1.41E-09
-52.5;-1.32E-09;3.011844;0.999999;5.65E-10;3.011844;;2.38E-05;;5.65E-10;1.32E-09
-52.0001;-1.25E-09;3.188317;0.999999;5.24E-10;3.188317;;2.29E-05;;5.24E-10;1.25E-09
-51.5;-1.18E-09;3.396056;0.999999;4.86E-10;3.396056;;2.20E-05;;4.86E-10;1.18E-09
-51;-1.11E-09;3.572793;1;4.46E-10;3.572793;;2.11E-05;;4.46E-10;1.11E-09
-50.5001;-1.06E-09;3.749499;1;4.19E-10;3.749499;;2.05E-05;;4.19E-10;1.06E-09
-50;-9.92E-10;3.92599;1;3.74E-10;3.92599;;1.93E-05;;3.74E-10;9.92E-10
-49.5001;-9.13E-10;4.10256;0.999999;3.15E-10;4.10256;;1.77E-05;;3.15E-10;9.13E-10
-49.0001;-8.00E-10;4.279093;1;2.27E-10;4.279093;;1.51E-05;;2.27E-10;8E-10
-48.5;-6.59E-10;4.45716;1;1.09E-10;4.45716;;1.04E-05;;1.09E-10;6.59E-10
-48;-5.05E-10;4.633636;1;-3.41E-11;4.633636;;0;;3.41E-11;5.05E-10
-47.5001;-3.21E-10;4.810226;0.999999;-1.92E-10;4.810226;;0;;1.92E-10;3.21E-10
-47.0001;-2.79E-10;4.988475;0.999999;-2.17E-10;4.988475;;0;;2.17E-10;2.79E-10
-46.5;-4.26E-10;5.165101;0.999999;-5.80E-11;5.165101;;0;;5.8E-11;4.26E-10
-46.0001;-6.28E-10;5.362298;1;1.61E-10;5.362298;;1.27E-05;;1.61E-10;6.28E-10
-45.5001;-6.71E-10;5.538898;1;2.24E-10;5.538898;;1.50E-05;;2.24E-10;6.71E-10
-45.0001;-6.75E-10;5.715331;0.999999;2.45E-10;5.715331;;1.57E-05;;2.45E-10;6.75E-10
-44.5001;-6.73E-10;5.923944;1;2.48E-10;5.923944;;1.57E-05;;2.48E-10;6.73E-10
-44;-6.39E-10;6.100416;0.999999;2.32E-10;6.100416;;1.52E-05;;2.32E-10;6.39E-10
-43.5001;-6.20E-10;6.277045;0.999999;2.23E-10;6.277045;;1.49E-05;;2.23E-10;6.2E-10
-43;-5.90E-10;6.45367;0.999999;2.10E-10;6.45367;;1.45E-05;;2.1E-10;5.9E-10
-42.5;-5.69E-10;6.630064;0.999999;2.01E-10;6.630064;;1.42E-05;;2.01E-10;5.69E-10
-42.0001;-5.48E-10;6.806585;1;1.92E-10;6.806585;;1.39E-05;;1.92E-10;5.48E-10
-41.5;-5.23E-10;6.98444;1.000001;1.82E-10;6.98444;;1.35E-05;;1.82E-10;5.23E-10
-41;-4.98E-10;7.16096;1;1.71E-10;7.16096;;1.31E-05;;1.71E-10;4.98E-10
-40.5001;-4.94E-10;7.337488;0.999999;1.73E-10;7.337488;;1.32E-05;;1.73E-10;4.94E-10
-40.0001;-4.68E-10;7.524139;1;1.60E-10;7.524139;;1.26E-05;;1.6E-10;4.68E-10
-39.5;-4.56E-10;7.700567;0.999999;1.57E-10;7.700567;;1.25E-05;;1.57E-10;4.56E-10
-39.0001;-4.61E-10;7.904521;1;1.60E-10;7.904521;;1.26E-05;;1.6E-10;4.61E-10
-38.5;-4.36E-10;8.081011;0.999999;1.50E-10;8.081011;;1.22E-05;;1.5E-10;4.36E-10
-38.0001;-4.05E-10;8.25747;0.999999;1.34E-10;8.25747;;1.16E-05;;1.34E-10;4.05E-10
-37.5001;-3.90E-10;8.43449;1;1.29E-10;8.43449;;1.14E-05;;1.29E-10;3.9E-10
-37;-3.83E-10;8.610914;0.999999;1.27E-10;8.610914;;1.13E-05;;1.27E-10;3.83E-10
-36.5;-3.57E-10;8.787392;0.999999;1.15E-10;8.787392;;1.07E-05;;1.15E-10;3.57E-10
-36.0001;-3.48E-10;8.963756;0.999999;1.13E-10;8.963756;;1.06E-05;;1.13E-10;3.48E-10
-35.5001;-3.34E-10;9.140244;0.999999;1.07E-10;9.140244;;1.03E-05;;1.07E-10;3.34E-10
-35.0001;-3.21E-10;9.316617;0.999999;1.02E-10;9.316617;;1.01E-05;;1.02E-10;3.21E-10
-34.5001;-3.12E-10;9.495416;1;9.93E-11;9.495416;;9.96E-06;;9.93E-11;3.12E-10
-34;-3.00E-10;9.671723;0.999999;9.43E-11;9.671723;;9.71E-06;;9.43E-11;3E-10
-33.5;-2.74E-10;9.848131;1.000001;8.21E-11;9.848131;;9.06E-06;;8.21E-11;2.74E-10
-33;-2.73E-10;10.032002;1;8.46E-11;10.032002;;9.20E-06;;8.46E-11;2.73E-10
-32.5001;-2.55E-10;10.208594;1;7.66E-11;10.208594;;8.75E-06;;7.66E-11;2.55E-10
-32;-2.50E-10;10.41607;0.999999;7.47E-11;10.41607;;8.64E-06;;7.47E-11;2.5E-10
-31.5001;-2.37E-10;10.592416;0.999999;7.03E-11;10.592416;;8.38E-06;;7.03E-11;2.37E-10
-31;-2.30E-10;10.768719;0.999999;6.92E-11;10.768719;;8.32E-06;;6.92E-11;2.3E-10
-30.5;-2.10E-10;10.945388;0.999999;5.86E-11;10.945388;;7.66E-06;;5.86E-11;2.1E-10
-30.0001;-2.09E-10;11.121814;0.999999;6.13E-11;11.121814;;7.83E-06;;6.13E-11;2.09E-10
-29.5;-1.90E-10;11.298045;0.999999;5.32E-11;11.298045;;7.29E-06;;5.32E-11;1.9E-10
-29.0001;-1.87E-10;11.476496;1;5.37E-11;11.476496;;7.33E-06;;5.37E-11;1.87E-10
-28.5001;-1.73E-10;11.652722;0.999999;4.76E-11;11.652722;;6.90E-06;;4.76E-11;1.73E-10
-28;-1.58E-10;11.829089;0.999999;4.15E-11;11.829089;;6.44E-06;;4.15E-11;1.58E-10
-27.5;-1.54E-10;12.007519;1.000001;4.16E-11;12.007519;;6.45E-06;;4.16E-11;1.54E-10
-27;-1.42E-10;12.183871;1;3.66E-11;12.183871;;6.05E-06;;3.66E-11;1.42E-10
-26.5;-1.37E-10;12.381622;1;3.44E-11;12.381622;;5.87E-06;;3.44E-11;1.37E-10
-26;-1.16E-10;12.558034;0.999999;2.46E-11;12.558034;;4.96E-06;;2.46E-11;1.16E-10
-25.5;-1.12E-10;12.734259;1;2.38E-11;12.734259;;4.88E-06;;2.38E-11;1.12E-10
-25;-1.03E-10;12.943066;1;1.80E-11;12.943066;;4.24E-06;;1.8E-11;1.03E-10
-24.5;-9.58E-11;13.119375;0.999999;1.74E-11;13.119375;;4.17E-06;;1.74E-11;9.58E-11
-24.0001;-7.91E-11;13.295545;0.999999;9.12E-12;13.295545;;3.02E-06;;9.12E-12;7.91E-11
-23.5001;-6.23E-11;13.47202;0.999999;1.83E-12;13.47202;;1.35E-06;;1.83E-12;6.23E-11
-23;-6.38E-11;13.648263;0.999999;4.52E-12;13.648263;;2.13E-06;;4.52E-12;6.38E-11
-22.5001;-5.06E-11;13.824642;1;-1.97E-12;13.824642;;0;;1.97E-12;5.06E-11
-22.0001;-3.91E-11;14.000854;0.999999;-7.05E-12;14.000854;;0;;7.05E-12;3.91E-11
-21.5;-2.79E-11;14.177227;0.999999;-1.30E-11;14.177227;;0;;1.3E-11;2.79E-11
-21.0001;-2.43E-11;14.353482;0.999999;-1.50E-11;14.353482;;0;;1.5E-11;2.43E-11
-20.5;-1.90E-12;14.543267;0.999999;-2.91E-11;14.543267;;0;;2.91E-11;1.9E-12
-20.0001;1.18E-11;14.719266;1.000001;-3.64E-11;14.719266;;0;;3.64E-11;1.18E-11
-19.5001;1.70E-11;14.928143;1;-4.36E-11;14.928143;;0;;4.36E-11;1.7E-11
-19.0001;3.70E-11;15.104562;1.000001;-5.67E-11;15.104562;;0;;5.67E-11;3.7E-11
-18.5;6.58E-11;15.280568;0.999999;-7.57E-11;15.280568;;0;;7.57E-11;6.58E-11
-18;7.53E-11;15.45797;0.999999;-8.35E-11;15.45797;;0;;8.35E-11;7.53E-11
-17.5;9.78E-11;15.634053;1;-9.94E-11;15.634053;;0;;9.94E-11;9.78E-11
-17;1.18E-10;15.810337;0.999999;-1.16E-10;15.810337;;0;;1.16E-10;1.18E-10
-16.5;1.48E-10;15.986656;0.999999;-1.40E-10;15.986656;;0;;1.4E-10;1.48E-10
-16;1.84E-10;16.162807;1;-1.66E-10;16.162807;;0;;1.66E-10;1.84E-10
-15.5;2.08E-10;16.338913;1.000001;-1.88E-10;16.338913;;0;;1.88E-10;2.08E-10
-15.0001;2.46E-10;16.516975;0.999999;-2.17E-10;16.516975;;0;;2.17E-10;2.46E-10
-14.5001;2.90E-10;16.693112;1;-2.49E-10;16.693112;;0;;2.49E-10;2.9E-10
-14;3.28E-10;16.894139;1.000001;-2.80E-10;16.894139;;0;;2.8E-10;3.28E-10
-13.5001;3.92E-10;17.070303;0.999999;-3.26E-10;17.070303;;0;;3.26E-10;3.92E-10
-13;4.51E-10;17.246507;1;-3.66E-10;17.246507;;0;;3.66E-10;4.51E-10
-12.5;5.08E-10;17.45583;1.000001;-4.10E-10;17.45583;;0;;4.1E-10;5.08E-10
-12;5.94E-10;17.63188;0.999999;-4.65E-10;17.63188;;0;;4.65E-10;5.94E-10
-11.5001;7.00E-10;17.808037;0.999999;-5.31E-10;17.808037;;0;;5.31E-10;7E-10
-11;8.19E-10;17.984212;0.999999;-6.11E-10;17.984212;;0;;6.11E-10;8.19E-10
-10.5;9.51E-10;18.160364;1.000001;-6.90E-10;18.160364;;0;;6.9E-10;9.51E-10
-10.0001;1.11E-09;18.336592;1;-7.87E-10;18.336592;;0;;7.87E-10;1.11E-09
-9.5;1.27E-09;18.513242;1;-8.96E-10;18.513242;;0;;8.96E-10;1.27E-09
-9.0001;1.46E-09;18.689279;1;-1.00E-09;18.689279;;0;;0.000000001;1.46E-09
-8.5;1.67E-09;18.865366;0.999999;-1.13E-09;18.865366;;0;;1.13E-09;1.67E-09
-8.0001;1.87E-09;19.055764;0.999999;-1.24E-09;19.055764;;0;;1.24E-09;1.87E-09
-7.5001;2.09E-09;19.231858;1.000001;-1.36E-09;19.231858;;0;;1.36E-09;2.09E-09
-7.0001;2.29E-09;19.441343;1.000001;-1.46E-09;19.441343;;0;;1.46E-09;2.29E-09
-6.5001;2.54E-09;19.61748;0.999999;-1.59E-09;19.61748;;0;;1.59E-09;2.54E-09
-6.0001;2.78E-09;19.793668;1;-1.69E-09;19.793668;;0;;1.69E-09;2.78E-09
-5.5;2.92E-09;19.971164;0.999998;-1.78E-09;19.971164;;0;;1.78E-09;2.92E-09
-5;2.80E-09;20.14737;0.999999;-1.86E-09;20.14737;;0;;1.86E-09;2.8E-09
-4.5;2.18E-09;20.323422;0.999999;-1.86E-09;20.323422;;0;;1.86E-09;2.18E-09
-4;2.03E-09;20.499596;1;-1.85E-09;20.499596;;0;;1.85E-09;2.03E-09
-3.5;1.89E-09;20.675735;1;-1.73E-09;20.675735;;0;;1.73E-09;1.89E-09
-3.0001;1.70E-09;20.852081;0.999999;-1.56E-09;20.852081;;0;;1.56E-09;1.7E-09
-2.5;1.47E-09;21.029872;0.999999;-1.34E-09;21.029872;;0;;1.34E-09;1.47E-09
-2.0001;1.22E-09;21.20595;0.999998;-1.10E-09;21.20595;;0;;1.1E-09;1.22E-09
-1.5;1.03E-09;21.382217;0.999999;-9.16E-10;21.382217;;0;;9.16E-10;1.03E-09
-1.0001;8.67E-10;21.563742;0.999999;-7.50E-10;21.563742;;0;;7.5E-10;8.67E-10
-0.5001;7.59E-10;21.739765;1;-6.40E-10;21.739765;;0;;6.4E-10;7.59E-10
0;5.56E-10;21.949114;0.999999;-4.38E-10;21.949114;;0;;4.38E-10;5.56E-10
0.5;5.97E-10;22.125278;0.999999;-4.70E-10;22.125278;;0;;4.7E-10;5.97E-10
0.9999;5.59E-10;22.30145;0.999999;-4.33E-10;22.30145;;0;;4.33E-10;5.59E-10
1.5;5.03E-10;22.47889;0.999998;-3.75E-10;22.47889;;0;;3.75E-10;5.03E-10
2;4.69E-10;22.655025;1;-3.33E-10;22.655025;;0;;3.33E-10;4.69E-10
2.4999;4.11E-10;22.831105;1;-2.76E-10;22.831105;;0;;2.76E-10;4.11E-10
3;3.75E-10;23.007229;1;-2.32E-10;23.007229;;0;;2.32E-10;3.75E-10
3.4999;3.25E-10;23.183352;1;-1.83E-10;23.183352;;0;;1.83E-10;3.25E-10
3.9999;2.94E-10;23.35956;1;-1.46E-10;23.35956;;0;;1.46E-10;2.94E-10
4.4999;2.46E-10;23.537477;0.999999;-1.01E-10;23.537477;;0;;1.01E-10;2.46E-10
4.9999;2.43E-10;23.713603;0.999999;-8.64E-11;23.713603;;0;;8.64E-11;2.43E-10
5.4999;1.84E-10;23.914631;0.999999;-3.06E-11;23.914631;;0;;3.06E-11;1.84E-10
6;1.94E-10;24.090708;1;-3.81E-11;24.090708;;0;;3.81E-11;1.94E-10
6.4999;1.91E-10;24.266972;0.999999;-2.84E-11;24.266972;;0;;2.84E-11;1.91E-10
7;1.67E-10;24.476482;1.000001;-5.19E-12;24.476482;;0;;5.19E-12;1.67E-10
7.5;1.84E-10;24.652581;1.000001;-1.53E-11;24.652581;;0;;1.53E-11;1.84E-10
7.9999;1.78E-10;24.82866;0.999999;-8.00E-12;24.82866;;0;;8E-12;1.78E-10
8.5;1.72E-10;25.004848;0.999999;-1.76E-12;25.004848;;0;;1.76E-12;1.72E-10
9;1.87E-10;25.181084;1;-6.76E-12;25.181084;;0;;6.76E-12;1.87E-10
9.5;1.91E-10;25.357253;0.999999;-4.98E-12;25.357253;;0;;4.98E-12;1.91E-10
9.9999;1.94E-10;25.53356;0.999999;-5.57E-12;25.53356;;0;;5.57E-12;1.94E-10
10.4999;1.86E-10;25.709598;0.999999;1.33E-12;25.709598;;1.15E-06;;1.33E-12;1.86E-10
11;2.03E-10;25.885857;0.999999;-6.61E-12;25.885857;;0;;6.61E-12;2.03E-10
11.5;2.08E-10;26.07718;0.999999;-7.74E-12;26.07718;;0;;7.74E-12;2.08E-10
11.9999;2.07E-10;26.253397;0.999999;-5.84E-12;26.253397;;0;;5.84E-12;2.07E-10
12.4999;2.05E-10;26.457366;1.000001;-3.77E-12;26.457366;;0;;3.77E-12;2.05E-10
13;2.04E-10;26.633472;1.000001;8.10E-13;26.633472;;0.0000009;;8.1E-13;2.04E-10
13.5001;2.26E-10;26.809752;1;-9.66E-12;26.809752;;0;;9.66E-12;2.26E-10
13.9999;2.19E-10;26.99132;1;-3.84E-12;26.99132;;0;;3.84E-12;2.19E-10
14.4999;2.22E-10;27.167433;0.999999;-2.63E-12;27.167433;;0;;2.63E-12;2.22E-10
15;2.26E-10;27.343498;0.999999;-3.95E-12;27.343498;;0;;3.95E-12;2.26E-10
15.4999;2.20E-10;27.519706;0.999999;3.08E-12;27.519706;;1.75E-06;;3.08E-12;2.2E-10
16;2.34E-10;27.695897;0.999999;-3.79E-12;27.695897;;0;;3.79E-12;2.34E-10
16.4999;2.53E-10;27.872217;0.999999;-1.17E-11;27.872217;;0;;1.17E-11;2.53E-10
16.9999;2.42E-10;28.051217;0.999999;-3.37E-12;28.051217;;0;;3.37E-12;2.42E-10
17.4999;2.45E-10;28.227688;1;-2.50E-12;28.227688;;0;;2.5E-12;2.45E-10
18;2.52E-10;28.427021;0.999999;-4.40E-12;28.427021;;0;;4.4E-12;2.52E-10
18.4999;2.53E-10;28.603187;0.999999;-2.03E-12;28.603187;;0;;2.03E-12;2.53E-10
19;2.68E-10;28.779291;1.000001;-1.01E-11;28.779291;;0;;1.01E-11;2.68E-10
19.5;2.46E-10;28.993203;1;4.28E-12;28.993203;;2.07E-06;;4.28E-12;2.46E-10
19.9999;2.61E-10;29.169368;0.999999;-1.23E-12;29.169368;;0;;1.23E-12;2.61E-10
20.5;2.70E-10;29.345392;0.999999;-4.89E-12;29.345392;;0;;4.89E-12;2.7E-10
20.9999;2.75E-10;29.521621;1;-4.54E-12;29.521621;;0;;4.54E-12;2.75E-10
21.4999;2.79E-10;29.697842;0.999998;-4.37E-12;29.697842;;0;;4.37E-12;2.79E-10
22;2.82E-10;29.874248;1;-2.19E-12;29.874248;;0;;2.19E-12;2.82E-10
22.5;2.85E-10;30.050593;1;-4.36E-12;30.050593;;0;;4.36E-12;2.85E-10
22.9999;2.88E-10;30.227028;1;-1.53E-12;30.227028;;0;;1.53E-12;2.88E-10
23.5;2.86E-10;30.403285;0.999999;2.13E-12;30.403285;;1.46E-06;;2.13E-12;2.86E-10
23.9999;2.87E-10;30.588862;1;3.65E-12;30.588862;;1.91E-06;;3.65E-12;2.87E-10
24.5;3.09E-10;30.765193;0.999999;-6.76E-12;30.765193;;0;;6.76E-12;3.09E-10
25;3.02E-10;30.970707;0.999998;-3.88E-12;30.970707;;0;;3.88E-12;3.02E-10
25.4999;3.00E-10;31.147069;1;2.23E-12;31.147069;;1.49E-06;;2.23E-12;3E-10
25.9999;3.18E-10;31.323397;0.999999;-5.28E-12;31.323397;;0;;5.28E-12;3.18E-10
26.5;3.15E-10;31.500123;1.000001;-1.10E-12;31.500123;;0;;1.1E-12;3.15E-10
27;3.38E-10;31.676332;0.999999;-1.29E-11;31.676332;;0;;1.29E-11;3.38E-10
27.5;3.23E-10;31.85279;0.999999;-7.00E-13;31.85279;;0;;7E-13;3.23E-10
27.9999;3.37E-10;32.029093;1.000001;-6.42E-12;32.029093;;0;;6.42E-12;3.37E-10
28.4999;3.29E-10;32.205422;1;2.11E-12;32.205422;;1.45E-06;;2.11E-12;3.29E-10
28.9999;3.48E-10;32.3818;1;-7.69E-12;32.3818;;0;;7.69E-12;3.48E-10
29.4999;3.41E-10;32.558224;0.999999;-9.10E-13;32.558224;;0;;9.1E-13;3.41E-10
29.9999;3.56E-10;32.734542;0.999999;-8.66E-12;32.734542;;0;;8.66E-12;3.56E-10
30.5;3.51E-10;32.910867;1;-2.49E-12;32.910867;;0;;2.49E-12;3.51E-10
30.9999;3.66E-10;33.096824;0.999999;-9.51E-12;33.096824;;0;;9.51E-12;3.66E-10
31.5;3.80E-10;33.273118;1.000001;-1.45E-11;33.273118;;0;;1.45E-11;3.8E-10
32;3.69E-10;33.482667;0.999999;-6.47E-12;33.482667;;0;;6.47E-12;3.69E-10
32.5;3.89E-10;33.659261;1;-1.75E-11;33.659261;;0;;1.75E-11;3.89E-10
32.9999;3.74E-10;33.835677;0.999999;-3.56E-12;33.835677;;0;;3.56E-12;3.74E-10
33.5;3.74E-10;34.012718;0.999999;-1.91E-12;34.012718;;0;;1.91E-12;3.74E-10
34;4.03E-10;34.189119;1;-1.59E-11;34.189119;;0;;1.59E-11;4.03E-10
34.5;3.85E-10;34.365386;1;-2.81E-12;34.365386;;0;;2.81E-12;3.85E-10
34.9999;4.04E-10;34.543435;0.999999;-1.42E-11;34.543435;;0;;1.42E-11;4.04E-10
35.5;4.30E-10;34.719683;0.999999;-2.68E-11;34.719683;;0;;2.68E-11;4.3E-10
36;4.57E-10;34.896277;1;-4.26E-11;34.896277;;0;;4.26E-11;4.57E-10
36.5;4.29E-10;35.074869;0.999999;-2.22E-11;35.074869;;0;;2.22E-11;4.29E-10
36.9999;4.58E-10;35.251149;1;-3.73E-11;35.251149;;0;;3.73E-11;4.58E-10
37.4999;4.56E-10;35.447468;1.000001;-3.42E-11;35.447468;;0;;3.42E-11;4.56E-10
38;4.65E-10;35.623831;0.999999;-3.73E-11;35.623831;;0;;3.73E-11;4.65E-10
38.4999;4.85E-10;35.800208;1.000001;-4.52E-11;35.800208;;0;;4.52E-11;4.85E-10
39;4.72E-10;36.014325;0.999999;-3.94E-11;36.014325;;0;;3.94E-11;4.72E-10
39.5;4.87E-10;36.190787;1;-4.49E-11;36.190787;;0;;4.49E-11;4.87E-10
40;4.92E-10;36.367219;1;-4.46E-11;36.367219;;0;;4.46E-11;4.92E-10
40.5001;5.02E-10;36.543715;1;-4.94E-11;36.543715;;0;;4.94E-11;5.02E-10
41;5.14E-10;36.720164;1;-5.35E-11;36.720164;;0;;5.35E-11;5.14E-10
41.4999;5.19E-10;36.896732;1.000001;-5.53E-11;36.896732;;0;;5.53E-11;5.19E-10
41.9999;5.14E-10;37.075013;1.000001;-4.88E-11;37.075013;;0;;4.88E-11;5.14E-10
42.5;5.05E-10;37.251426;0.999999;-4.15E-11;37.251426;;0;;4.15E-11;5.05E-10
42.9999;5.26E-10;37.452913;1;-5.55E-11;37.452913;;0;;5.55E-11;5.26E-10
43.5;5.36E-10;37.629493;0.999999;-5.68E-11;37.629493;;0;;5.68E-11;5.36E-10
43.9999;5.41E-10;37.805844;1.000001;-5.46E-11;37.805844;;0;;5.46E-11;5.41E-10
44.5;5.30E-10;38.019926;1;-4.96E-11;38.019926;;0;;4.96E-11;5.3E-10
45;5.59E-10;38.196672;1;-6.27E-11;38.196672;;0;;6.27E-11;5.59E-10
45.5;5.51E-10;38.373172;1;-5.52E-11;38.373172;;0;;5.52E-11;5.51E-10
45.9999;5.53E-10;38.549762;0.999999;-5.32E-11;38.549762;;0;;5.32E-11;5.53E-10
46.5;5.73E-10;38.7263;1.000001;-6.60E-11;38.7263;;0;;6.6E-11;5.73E-10
46.9999;5.59E-10;38.90303;1;-5.10E-11;38.90303;;0;;5.1E-11;5.59E-10
47.5;5.70E-10;39.081407;0.999999;-5.65E-11;39.081407;;0;;5.65E-11;5.7E-10
47.9999;5.70E-10;39.257867;0.999999;-5.38E-11;39.257867;;0;;5.38E-11;5.7E-10
48.4999;5.77E-10;39.488177;0.999999;-5.95E-11;39.488177;;0;;5.95E-11;5.77E-10
49;6.08E-10;39.664737;1.000001;-7.40E-11;39.664737;;0;;7.4E-11;6.08E-10
49.4999;5.87E-10;39.841371;1;-5.87E-11;39.841371;;0;;5.87E-11;5.87E-10
49.9999;5.83E-10;40.029559;1.000001;-5.49E-11;40.029559;;0;;5.49E-11;5.83E-10
50.5;6.01E-10;40.206151;1;-6.35E-11;40.206151;;0;;6.35E-11;6.01E-10
50.9999;6.06E-10;40.382655;0.999999;-6.34E-11;40.382655;;0;;6.34E-11;6.06E-10
51.5;6.08E-10;40.561071;0.999999;-6.18E-11;40.561071;;0;;6.18E-11;6.08E-10
52;6.31E-10;40.737716;1;-7.43E-11;40.737716;;0;;7.43E-11;6.31E-10
52.4999;6.35E-10;40.914377;0.999999;-7.32E-11;40.914377;;0;;7.32E-11;6.35E-10
52.9999;6.35E-10;41.092783;0.999999;-6.99E-11;41.092783;;0;;6.99E-11;6.35E-10
53.5;6.43E-10;41.269451;0.999999;-7.37E-11;41.269451;;0;;7.37E-11;6.43E-10
54;6.39E-10;41.465138;1;-6.83E-11;41.465138;;0;;6.83E-11;6.39E-10
54.5;6.46E-10;41.641842;1;-6.85E-11;41.641842;;0;;6.85E-11;6.46E-10
55;6.56E-10;41.81842;0.999999;-7.67E-11;41.81842;;0;;7.67E-11;6.56E-10
55.4999;6.51E-10;42.028201;1;-6.98E-11;42.028201;;0;;6.98E-11;6.51E-10
55.9999;6.60E-10;42.204843;0.999999;-7.06E-11;42.204843;;0;;7.06E-11;6.6E-10
56.5;6.53E-10;42.381481;1;-6.39E-11;42.381481;;0;;6.39E-11;6.53E-10
56.9999;6.51E-10;42.55814;1;-5.95E-11;42.55814;;0;;5.95E-11;6.51E-10
57.4999;6.65E-10;42.734698;0.999999;-6.61E-11;42.734698;;0;;6.61E-11;6.65E-10
57.9999;6.73E-10;42.911372;1;-6.82E-11;42.911372;;0;;6.82E-11;6.73E-10
58.4999;6.79E-10;43.088209;1;-6.94E-11;43.088209;;0;;6.94E-11;6.79E-10
59;6.73E-10;43.264828;1;-6.21E-11;43.264828;;0;;6.21E-11;6.73E-10
59.4999;6.94E-10;43.441535;1;-7.33E-11;43.441535;;0;;7.33E-11;6.94E-10
59.9999;7.00E-10;43.627086;0.999999;-7.55E-11;43.627086;;0;;7.55E-11;7E-10
59.9999;6.88E-10;43.748277;0.999999;-7.28E-11;43.748277;;0;;7.28E-11;6.88E-10
59.4999;6.20E-10;43.924943;0.999999;-4.79E-11;43.924943;;0;;4.79E-11;6.2E-10
58.9999;5.79E-10;44.103331;1;-3.15E-11;44.103331;;0;;3.15E-11;5.79E-10
58.5;5.33E-10;44.279965;1;-1.12E-11;44.279965;;0;;1.12E-11;5.33E-10
57.9999;4.85E-10;44.473215;0.999999;1.58E-11;44.473215;;3.97E-06;;1.58E-11;4.85E-10
57.5;4.94E-10;44.649828;1;-3.38E-12;44.649828;;0;;3.38E-12;4.94E-10
57;4.42E-10;44.826292;1;2.07E-11;44.826292;;4.55E-06;;2.07E-11;4.42E-10
56.4999;4.32E-10;45.036867;1;2.37E-11;45.036867;;4.87E-06;;2.37E-11;4.32E-10
55.9999;4.03E-10;45.213506;1.000001;3.34E-11;45.213506;;5.78E-06;;3.34E-11;4.03E-10
55.5;3.86E-10;45.390022;0.999999;3.76E-11;45.390022;;6.13E-06;;3.76E-11;3.86E-10
55;3.82E-10;45.56665;1;3.20E-11;45.56665;;5.66E-06;;3.2E-11;3.82E-10
54.4999;3.42E-10;45.743309;1.000001;5.00E-11;45.743309;;7.07E-06;;5E-11;3.42E-10
53.9999;3.51E-10;45.919961;1.000001;4.12E-11;45.919961;;6.42E-06;;4.12E-11;3.51E-10
53.5;3.46E-10;46.096576;1;3.59E-11;46.096576;;5.99E-06;;3.59E-11;3.46E-10
52.9999;3.39E-10;46.273178;1;3.67E-11;46.273178;;6.06E-06;;3.67E-11;3.39E-10
52.4999;3.39E-10;46.449774;0.999999;2.97E-11;46.449774;;5.45E-06;;2.97E-11;3.39E-10
51.9999;3.27E-10;46.635114;1;3.21E-11;46.635114;;5.67E-06;;3.21E-11;3.27E-10
51.4999;3.13E-10;46.811557;1;3.54E-11;46.811557;;5.95E-06;;3.54E-11;3.13E-10
51;3.13E-10;47.021114;0.999999;3.16E-11;47.021114;;5.62E-06;;3.16E-11;3.13E-10
50.4999;2.96E-10;47.197686;0.999999;3.58E-11;47.197686;;5.98E-06;;3.58E-11;2.96E-10
49.9999;2.86E-10;47.374084;1;3.58E-11;47.374084;;5.98E-06;;3.58E-11;2.86E-10
49.4999;2.86E-10;47.550761;1;3.01E-11;47.550761;;5.49E-06;;3.01E-11;2.86E-10
