#scan	iMeasureCycle=1	iMux=0	time=0.135	N=482	LocalTime=31/10/2023 14:12:58
#VGate(V)	IGate(A)	time(s)	VDrain(V)	IDrain(A)	time(s)
-60	-4.99581E-09	0.29557	0.0500004	3.03126E-09	0.29557
-59.5001	-4.16397E-09	0.472542	0.0500006	2.454E-09	0.472542
-59.0001	-3.6326E-09	0.649125	0.0500005	2.08935E-09	0.649125
-58.5001	-3.17257E-09	0.843029	0.0500002	1.77379E-09	0.843029
-58.0001	-2.84116E-09	1.020749	0.0499998	1.54805E-09	1.020749
-57.5	-2.60315E-09	1.197239	0.0500002	1.38885E-09	1.197239
-57.0001	-2.37463E-09	1.411007	0.0500004	1.2363E-09	1.411007
-56.5001	-2.16444E-09	1.587705	0.0499996	1.09775E-09	1.587705
-56.0001	-2.01978E-09	1.764216	0.0500002	1.00681E-09	1.764216
-55.5001	-1.87225E-09	1.943387	0.0499999	9.0995E-10	1.943387
-55	-1.76685E-09	2.120062	0.0500001	8.4109E-10	2.120062
-54.5001	-1.66912E-09	2.296616	0.0499998	7.7897E-10	2.296616
-54.0001	-1.56998E-09	2.475101	0.0500003	7.2136E-10	2.475101
-53.5	-1.47742E-09	2.651942	0.0500002	6.6895E-10	2.651942
-53.0001	-1.39614E-09	2.84853	0.0499998	6.191E-10	2.84853
-52.5	-1.31166E-09	3.025279	0.0499998	5.6595E-10	3.025279
-52	-1.26105E-09	3.201944	0.0499996	5.3882E-10	3.201944
-51.5001	-1.19385E-09	3.414893	0.0500001	4.9389E-10	3.414893
-51.0001	-1.12313E-09	3.591625	0.0500004	4.5672E-10	3.591625
-50.5	-1.07364E-09	3.768183	0.0499997	4.268E-10	3.768183
-50	-1.01285E-09	3.944879	0.05	3.8575E-10	3.944879
-49.5001	-9.5489E-10	4.122285	0.0499999	3.4704E-10	4.122285
-49.0001	-8.7251E-10	4.298849	0.0500001	2.8629E-10	4.298849
-48.5	-7.6702E-10	4.477215	0.0500002	2.0039E-10	4.477215
-48.0001	-6.1297E-10	4.65369	0.0499997	6.173E-11	4.65369
-47.5	-4.9523E-10	4.855127	0.0500002	-3.579E-11	4.855127
-47.0001	-3.1294E-10	5.031668	0.0499999	-1.9823E-10	5.031668
-46.5	-2.7119E-10	5.208111	0.0499995	-2.2858E-10	5.208111
-46.0001	-4.9105E-10	5.421206	0.0499998	2.17E-12	5.421206
-45.5	-5.9875E-10	5.597853	0.0499999	1.2884E-10	5.597853
-45.0001	-6.6876E-10	5.774325	0.05	2.1427E-10	5.774325
-44.5001	-6.782E-10	5.950925	0.0499999	2.3505E-10	5.950925
-44	-6.5626E-10	6.127389	0.0499998	2.2532E-10	6.127389
-43.5001	-6.27E-10	6.304012	0.0500002	2.1129E-10	6.304012
-43.0001	-6.0741E-10	6.48269	0.0499998	2.0209E-10	6.48269
-42.5	-5.922E-10	6.659134	0.0500003	1.97E-10	6.659134
-42.0001	-5.7105E-10	6.859678	0.0500001	1.8754E-10	6.859678
-41.4999	-5.6261E-10	7.036242	0.0499999	1.8824E-10	7.036242
-41.0001	-5.258E-10	7.21255	0.0499996	1.6794E-10	7.21255
-40.5	-5.1043E-10	7.425518	0.0500004	1.629E-10	7.425518
-40	-4.9486E-10	7.601912	0.0500001	1.5677E-10	7.601912
-39.5	-4.7551E-10	7.77832	0.05	1.4916E-10	7.77832
-39.0001	-4.6591E-10	7.954747	0.0500005	1.4699E-10	7.954747
-38.5	-4.4999E-10	8.13108	0.05	1.404E-10	8.13108
-38.0001	-4.2885E-10	8.30749	0.0500003	1.317E-10	8.30749
-37.5	-4.2275E-10	8.484002	0.0499997	1.3025E-10	8.484002
-37	-3.9727E-10	8.660356	0.0500005	1.2015E-10	8.660356
-36.5	-3.8308E-10	8.836774	0.05	1.1395E-10	8.836774
-36.0001	-3.7128E-10	9.021574	0.0499999	1.105E-10	9.021574
-35.5001	-3.5662E-10	9.19778	0.0499997	1.049E-10	9.19778
-35.0001	-3.4878E-10	9.40629	0.0499998	1.0083E-10	9.40629
-34.5	-3.4226E-10	9.582703	0.0499997	1.0182E-10	9.582703
-34.0001	-3.2836E-10	9.759152	0.0499996	9.61E-11	9.759152
-33.5001	-3.128E-10	9.936686	0.0499995	8.835E-11	9.936686
-33.0001	-2.9515E-10	10.112944	0.0499996	8.197E-11	10.112944
-32.5001	-2.8844E-10	10.289332	0.0500002	8.071E-11	10.289332
-32.0001	-2.7914E-10	10.468065	0.0500005	7.719E-11	10.468065
-31.5	-2.673E-10	10.644393	0.05	7.321E-11	10.644393
-31	-2.5895E-10	10.820702	0.0500002	7.032E-11	10.820702
-30.5001	-2.4076E-10	10.998953	0.0499998	6.176E-11	10.998953
-30	-2.3049E-10	11.175334	0.0499998	5.806E-11	11.175334
-29.5001	-2.1939E-10	11.372062	0.0500008	5.331E-11	11.372062
-29.0001	-2.1165E-10	11.548432	0.0500001	5.245E-11	11.548432
-28.5001	-1.937E-10	11.724725	0.0499998	4.258E-11	11.724725
-28.0001	-1.9125E-10	11.934001	0.0500001	4.311E-11	11.934001
-27.5	-1.8844E-10	12.110245	0.0500002	4.402E-11	12.110245
-27.0001	-1.6582E-10	12.286454	0.0499992	3.243E-11	12.286454
-26.5001	-1.5679E-10	12.462814	0.0500003	2.978E-11	12.462814
-26.0001	-1.4885E-10	12.639178	0.0499997	2.726E-11	12.639178
-25.5	-1.4265E-10	12.815346	0.0499999	2.568E-11	12.815346
-25	-1.2089E-10	12.992063	0.05	1.489E-11	12.992063
-24.5001	-1.1714E-10	13.16827	0.0499997	1.439E-11	13.16827
-24.0001	-1.1237E-10	13.344557	0.0499998	1.423E-11	13.344557
-23.5	-1.013E-10	13.5337	0.05	8.56E-12	13.5337
-23.0001	-9.145E-11	13.709985	0.0499998	4.44E-12	13.709985
-22.5001	-8.854E-11	13.914744	0.05	3.01E-12	13.914744
-22	-6.7E-11	14.091069	0.0499999	-7.97E-12	14.091069
-21.5	-6.287E-11	14.267434	0.0500001	-8.63E-12	14.267434
-21.0001	-5.329E-11	14.448419	0.0499995	-1.388E-11	14.448419
-20.5001	-3.433E-11	14.624689	0.05	-2.354E-11	14.624689
-20	-2.274E-11	14.800764	0.0499999	-3.088E-11	14.800764
-19.5001	-1.787E-11	14.97705	0.0500001	-3.41E-11	14.97705
-19.0001	8.6E-13	15.153164	0.0499998	-4.573E-11	15.153164
-18.5	2.213E-11	15.329212	0.0499999	-6.018E-11	15.329212
-18	3.265E-11	15.507288	0.0500002	-6.853E-11	15.507288
-17.5001	6.372E-11	15.683431	0.0500002	-9.041E-11	15.683431
-17	7.43E-11	15.884426	0.0500004	-1.0071E-10	15.884426
-16.5	1.0374E-10	16.060515	0.05	-1.2162E-10	16.060515
-16	1.2306E-10	16.236523	0.0499999	-1.374E-10	16.236523
-15.5	1.4523E-10	16.450495	0.05	-1.5764E-10	16.450495
-15.0001	1.7837E-10	16.626626	0.0499999	-1.8391E-10	16.626626
-14.4999	2.0358E-10	16.80273	0.0500004	-2.0772E-10	16.80273
-14	2.4377E-10	16.978996	0.0500002	-2.4189E-10	16.978996
-13.5	2.8894E-10	17.155066	0.05	-2.7985E-10	17.155066
-13.0001	3.3044E-10	17.331158	0.0499999	-3.1514E-10	17.331158
-12.5	3.7474E-10	17.507856	0.0499997	-3.5621E-10	17.507856
-12.0001	4.3042E-10	17.68401	0.0500003	-4.065E-10	17.68401
-11.5001	4.8519E-10	17.860025	0.05	-4.609E-10	17.860025
-11.0001	5.4628E-10	18.046038	0.0500003	-5.1672E-10	18.046038
-10.5	6.4069E-10	18.222021	0.0500002	-6.0394E-10	18.222021
-10	7.0598E-10	18.431241	0.0499996	-6.7123E-10	18.431241
-9.5	8.1328E-10	18.607432	0.0500001	-7.7109E-10	18.607432
-9	9.1666E-10	18.783426	0.0500001	-8.7055E-10	18.783426
-8.5	1.02549E-09	18.961201	0.0500002	-9.7253E-10	18.961201
-8.0001	1.15532E-09	19.137279	0.0500003	-1.10239E-09	19.137279
-7.5001	1.26367E-09	19.313369	0.0499994	-1.20683E-09	19.313369
-7	1.37623E-09	19.48961	0.0500001	-1.30978E-09	19.48961
-6.5001	1.54066E-09	19.665915	0.0500001	-1.46429E-09	19.665915
-6	1.66588E-09	19.84195	0.0499999	-1.58279E-09	19.84195
-5.5	1.79301E-09	20.019875	0.0499998	-1.6912E-09	20.019875
-5	1.938E-09	20.195926	0.0499999	-1.80947E-09	20.195926
-4.5001	2.03995E-09	20.37197	0.0499995	-1.86734E-09	20.37197
-4	2.14056E-09	20.553767	0.0499992	-1.91896E-09	20.553767
-3.5001	2.1848E-09	20.729818	0.0499993	-1.88059E-09	20.729818
-3.0001	2.0639E-09	20.93916	0.0499994	-1.65461E-09	20.93916
-2.5001	2.05192E-09	21.11539	0.0499996	-1.53069E-09	21.11539
-2	1.99088E-09	21.291585	0.0499993	-1.33701E-09	21.291585
-1.5001	1.83837E-09	21.467878	0.0499996	-1.14515E-09	21.467878
-1	1.62E-09	21.644005	0.0499993	-9.4041E-10	21.644005
-0.5	1.40481E-09	21.819998	0.0499998	-7.853E-10	21.819998
-0.0001	1.1801E-09	21.996187	0.0499998	-6.6433E-10	21.996187
0.4999	1.01944E-09	22.17232	0.0500001	-5.8193E-10	22.17232
1	8.7038E-10	22.348394	0.0500002	-5.1423E-10	22.348394
1.5	7.2398E-10	22.526924	0.0499994	-4.5079E-10	22.526924
1.9999	6.1181E-10	22.703023	0.0499995	-3.9962E-10	22.703023
2.4999	5.2667E-10	22.87904	0.0499997	-3.5206E-10	22.87904
2.9999	4.3117E-10	23.06076	0.0499993	-2.8606E-10	23.06076
3.4999	3.8039E-10	23.236739	0.05	-2.4253E-10	23.236739
3.9999	2.4485E-10	23.445938	0.0499998	-1.1464E-10	23.445938
4.4999	2.8492E-10	23.622187	0.0499995	-1.5235E-10	23.622187
4.9999	2.6148E-10	23.798192	0.0499998	-1.2557E-10	23.798192
5.5	2.3131E-10	23.976408	0.0499993	-9.128E-11	23.976408
6	2.0603E-10	24.15246	0.0500007	-6.581E-11	24.15246
6.4999	2.009E-10	24.328607	0.0499994	-5.243E-11	24.328607
7	1.8777E-10	24.504817	0.0500001	-3.68E-11	24.504817
7.5	1.8664E-10	24.680955	0.05	-3.064E-11	24.680955
8	1.7501E-10	24.856933	0.0500004	-1.899E-11	24.856933
8.4999	1.6784E-10	25.035395	0.0500001	-9.82E-12	25.035395
8.9999	1.7054E-10	25.211539	0.05	-8.58E-12	25.211539
9.5	1.6947E-10	25.411632	0.0499998	-6.39E-12	25.411632
9.9999	1.6949E-10	25.58796	0.0500003	-4.66E-12	25.58796
10.5	1.7126E-10	25.76408	0.0500001	-3.12E-12	25.76408
11	1.6798E-10	25.978079	0.0500002	-4.2E-13	25.978079
11.5	1.8606E-10	26.154401	0.0500005	-8.13E-12	26.154401
12	1.8187E-10	26.330501	0.0500003	-3.88E-12	26.330501
12.4999	1.8821E-10	26.50673	0.0500003	-5.41E-12	26.50673
12.9999	1.9411E-10	26.682965	0.05	-7.69E-12	26.682965
13.4999	2.038E-10	26.858996	0.0500006	-1.011E-11	26.858996
14	1.9586E-10	27.03516	0.0500001	-2.62E-12	27.03516
14.4999	2.0825E-10	27.21126	0.0499996	-8.79E-12	27.21126
14.9999	2.0405E-10	27.387328	0.0500004	-3.7E-12	27.387328
15.5	2.1764E-10	27.573193	0.05	-9.85E-12	27.573193
15.9999	2.1577E-10	27.749298	0.0500001	-6.72E-12	27.749298
16.4999	2.1931E-10	27.959124	0.0499996	-8.52E-12	27.959124
16.9999	2.3538E-10	28.135296	0.0499999	-1.44E-11	28.135296
17.5	2.267E-10	28.311519	0.0500003	-7.39E-12	28.311519
17.9999	2.3784E-10	28.488706	0.0500003	-1.19E-11	28.488706
18.5	2.329E-10	28.664785	0.0499997	-6.19E-12	28.664785
18.9999	2.3683E-10	28.840806	0.0499999	-7.22E-12	28.840806
19.5	2.4429E-10	29.017154	0.05	-8.4E-12	29.017154
20	2.4711E-10	29.193222	0.0500009	-7.82E-12	29.193222
20.5	2.5293E-10	29.369288	0.0500003	-8.99E-12	29.369288
20.9999	2.5019E-10	29.547848	0.05	-6.14E-12	29.547848
21.5	2.4473E-10	29.724161	0.0499999	-3.3E-13	29.724161
22	2.5585E-10	29.924109	0.0500002	-6.34E-12	29.924109
22.5	2.6599E-10	30.10046	0.0500002	-8.22E-12	30.10046
23	2.9055E-10	30.27686	0.0500006	-1.973E-11	30.27686
23.5	2.6937E-10	30.49081	0.0500006	-7.66E-12	30.49081
24	2.6366E-10	30.667221	0.0499997	4.2E-13	30.667221
24.4999	3.0206E-10	30.843365	0.0500002	-2.098E-11	30.843365
25	2.9531E-10	31.019667	0.0499998	-1.309E-11	31.019667
25.4999	2.842E-10	31.195899	0.0499997	-4.92E-12	31.195899
25.9999	2.9595E-10	31.372267	0.0500002	-8.31E-12	31.372267
26.5	2.7993E-10	31.548622	0.0500001	4.23E-12	31.548622
26.9999	3.0371E-10	31.724923	0.0499999	-7.15E-12	31.724923
27.5	3.1379E-10	31.901204	0.0499996	-9.61E-12	31.901204
27.9999	3.1263E-10	32.086934	0.0500003	-6.26E-12	32.086934
28.5	3.2038E-10	32.263143	0.0500004	-8.45E-12	32.263143
29	3.137E-10	32.472447	0.0500001	-5.33E-12	32.472447
29.4999	3.2063E-10	32.648901	0.0500005	-5.25E-12	32.648901
30	3.2621E-10	32.825111	0.0499998	-5.93E-12	32.825111
30.5	3.3999E-10	33.00274	0.0500004	-1.212E-11	33.00274
30.9999	3.476E-10	33.178939	0.0500002	-1.262E-11	33.178939
31.5	3.3597E-10	33.355281	0.0500003	-3.25E-12	33.355281
32	3.4767E-10	33.533436	0.0499999	-9.23E-12	33.533436
32.4999	3.571E-10	33.709992	0.0500001	-1.177E-11	33.709992
33	3.653E-10	33.88625	0.0500001	-1.467E-11	33.88625
33.5	3.6794E-10	34.064473	0.0500003	-1.674E-11	34.064473
34	3.7353E-10	34.240764	0.0500004	-1.717E-11	34.240764
34.5	3.8504E-10	34.437542	0.0499993	-2.399E-11	34.437542
35	4.0832E-10	34.613892	0.05	-3.595E-11	34.613892
35.4999	4.1576E-10	34.790206	0.0499998	-3.748E-11	34.790206
36	4.0893E-10	35.004228	0.0499997	-3.301E-11	35.004228
36.4999	4.1514E-10	35.180497	0.0499993	-3.246E-11	35.180497
36.9999	4.2578E-10	35.356956	0.0499995	-3.673E-11	35.356956
37.4999	4.451E-10	35.533377	0.0500002	-4.595E-11	35.533377
37.9999	4.4573E-10	35.709787	0.0500002	-3.966E-11	35.709787
38.5	4.6149E-10	35.886006	0.0499995	-4.851E-11	35.886006
38.9999	4.4861E-10	36.064838	0.0500003	-3.772E-11	36.064838
39.4999	4.689E-10	36.241273	0.0500004	-4.88E-11	36.241273
40	4.7065E-10	36.417623	0.0499998	-4.625E-11	36.417623
40.4999	4.8357E-10	36.599534	0.0500001	-5.35E-11	36.599534
41	4.9566E-10	36.775956	0.0500001	-5.797E-11	36.775956
41.4999	4.8192E-10	36.985082	0.0500001	-4.663E-11	36.985082
42	4.9354E-10	37.161699	0.0499997	-5.378E-11	37.161699
42.4999	5.0221E-10	37.338235	0.0500004	-5.466E-11	37.338235
42.9999	5.0245E-10	37.515486	0.0500013	-5.109E-11	37.515486
43.5	5.1494E-10	37.692044	0.0500002	-5.511E-11	37.692044
43.9999	5.2456E-10	37.868416	0.0499995	-5.915E-11	37.868416
44.5	5.2685E-10	38.045823	0.0499999	-5.87E-11	38.045823
44.9999	5.4338E-10	38.222364	0.0500004	-6.545E-11	38.222364
45.4999	5.3889E-10	38.398778	0.0499996	-6.093E-11	38.398778
46	5.5586E-10	38.57699	0.0499996	-6.736E-11	38.57699
46.4999	5.5465E-10	38.753513	0.0499999	-6.494E-11	38.753513
47	5.471E-10	38.949856	0.0500002	-5.756E-11	38.949856
47.5	5.6535E-10	39.12649	0.0499997	-6.673E-11	39.12649
47.9999	5.7313E-10	39.302891	0.05	-6.678E-11	39.302891
48.5	5.7316E-10	39.51754	0.0499993	-6.705E-11	39.51754
49	5.7565E-10	39.69412	0.0499998	-6.445E-11	39.69412
49.4999	5.8428E-10	39.870572	0.0500001	-6.69E-11	39.870572
50	5.8755E-10	40.047348	0.0500002	-6.594E-11	40.047348
50.4999	5.9332E-10	40.223904	0.0500005	-6.717E-11	40.223904
51	6.0877E-10	40.400405	0.0500004	-7.334E-11	40.400405
51.4999	6.1363E-10	40.579297	0.0500003	-7.312E-11	40.579297
51.9999	6.0675E-10	40.756053	0.049999	-6.811E-11	40.756053
52.5	6.0837E-10	40.956332	0.0500003	-6.517E-11	40.956332
53	6.2009E-10	41.132878	0.0500003	-7.035E-11	41.132878
53.5	6.2774E-10	41.309327	0.0500003	-7.243E-11	41.309327
53.9999	6.2226E-10	41.523989	0.0499997	-6.816E-11	41.523989
54.4999	6.211E-10	41.700616	0.0500002	-6.343E-11	41.700616
55	6.4853E-10	41.877114	0.0500007	-7.916E-11	41.877114
55.4999	6.3933E-10	42.053826	0.0499999	-6.946E-11	42.053826
56	6.5357E-10	42.230446	0.0499997	-7.593E-11	42.230446
56.4999	6.3957E-10	42.406981	0.0500004	-6.424E-11	42.406981
56.9999	6.5244E-10	42.585712	0.0499996	-6.929E-11	42.585712
57.4999	6.7275E-10	42.762246	0.0500005	-7.883E-11	42.762246
58	6.586E-10	42.962738	0.0500004	-6.966E-11	42.962738
58.4999	6.6024E-10	43.139509	0.0499998	-6.724E-11	43.139509
58.9999	6.7483E-10	43.316117	0.05	-7.371E-11	43.316117
59.4999	6.6438E-10	43.531005	0.0500001	-6.75E-11	43.531005
59.9999	6.7131E-10	43.707721	0.0499996	-6.67E-11	43.707721
59.9999	6.5568E-10	43.828915	0.0500001	-6.371E-11	43.828915
59.4999	5.9187E-10	44.03488	0.0500001	-3.718E-11	44.03488
59.0001	5.0629E-10	44.211497	0.0499993	6.21E-12	44.211497
58.4999	4.78E-10	44.388127	0.0500001	1.557E-11	44.388127
57.9999	4.3982E-10	44.564654	0.0499995	2.935E-11	44.564654
57.4999	4.1531E-10	44.741348	0.0500004	3.975E-11	44.741348
57	4.1004E-10	44.917905	0.0499991	3.404E-11	44.917905
56.4999	4.0349E-10	45.096453	0.05	3E-11	45.096453
55.9999	3.9324E-10	45.272977	0.0500001	2.844E-11	45.272977
55.4999	3.952E-10	45.47042	0.0499998	2.104E-11	45.47042
54.9999	3.7579E-10	45.647008	0.0500003	2.612E-11	45.647008
54.5	3.5634E-10	45.823563	0.0500004	3.294E-11	45.823563
54	3.7573E-10	46.039007	0.0500007	1.398E-11	46.039007
53.5	3.3614E-10	46.215622	0.0500003	3.299E-11	46.215622
52.9999	3.1942E-10	46.392232	0.0500009	3.552E-11	46.392232
52.5	3.132E-10	46.568949	0.05	3.586E-11	46.568949
51.9999	2.9887E-10	46.745568	0.0499996	3.898E-11	46.745568
51.5	2.9471E-10	46.922103	0.0499995	3.758E-11	46.922103
50.9999	2.9329E-10	47.100898	0.0500003	3.31E-11	47.100898
50.5	2.9188E-10	47.277381	0.05	2.726E-11	47.277381
50	2.6795E-10	47.474888	0.0499999	3.79E-11	47.474888
49.5	2.564E-10	47.651466	0.0500001	4.155E-11	47.651466
49	2.6292E-10	47.827965	0.0499994	3.056E-11	47.827965
48.4999	2.5251E-10	48.042857	0.0499996	3.353E-11	48.042857
48	2.3987E-10	48.219286	0.0499998	3.787E-11	48.219286
47.4999	2.3448E-10	48.396013	0.0499997	3.401E-11	48.396013
47	2.1186E-10	48.572562	0.0500005	4.394E-11	48.572562
46.4999	2.175E-10	48.749165	0.0500001	3.287E-11	48.749165
45.9999	1.9537E-10	48.925555	0.0500002	4.144E-11	48.925555
45.4999	1.8876E-10	49.104418	0.0500002	4.649E-11	49.104418
44.9999	1.9215E-10	49.280936	0.0499999	3.784E-11	49.280936
44.5	2.0145E-10	49.481389	0.0499997	2.749E-11	49.481389
44	1.8687E-10	49.657936	0.0500003	3.411E-11	49.657936
43.5	1.7958E-10	49.834318	0.0500005	3.357E-11	49.834318
42.9999	1.9507E-10	50.049031	0.0500004	2.528E-11	50.049031
42.4999	1.6992E-10	50.225467	0.0499997	3.151E-11	50.225467
41.9999	1.5341E-10	50.402101	0.05	3.682E-11	50.402101
41.4999	1.5024E-10	50.578695	0.05	3.604E-11	50.578695
40.9999	1.4709E-10	50.755684	0.0500004	3.446E-11	50.755684
40.4999	1.4855E-10	50.931924	0.0499995	3.666E-11	50.931924
40	1.4495E-10	51.110639	0.0500002	2.804E-11	51.110639
39.5	1.308E-10	51.287095	0.0500001	3.251E-11	51.287095
39	1.1943E-10	51.487813	0.0499999	3.799E-11	51.487813
38.5	1.1367E-10	51.664251	0.0500005	3.688E-11	51.664251
37.9999	1.0642E-10	51.840642	0.0499999	3.702E-11	51.840642
37.4999	1.205E-10	52.055529	0.0500001	2.683E-11	52.055529
36.9999	9.758E-11	52.231872	0.0500001	3.447E-11	52.231872
36.4999	9.825E-11	52.408358	0.0500001	3.157E-11	52.408358
36	9.772E-11	52.584819	0.05	2.783E-11	52.584819
35.4999	9.391E-11	52.761437	0.0500005	2.685E-11	52.761437
35	9.248E-11	52.937744	0.0500002	2.415E-11	52.937744
34.5	7.822E-11	53.116088	0.0499994	3.055E-11	53.116088
33.9999	8.467E-11	53.292319	0.0500001	2.361E-11	53.292319
33.5	1.0991E-10	53.493217	0.0499997	2.95E-12	53.493217
33	8.919E-11	53.669622	0.0499997	1.085E-11	53.669622
32.4999	8.863E-11	53.845905	0.0500004	6.32E-12	53.845905
32	8.222E-11	54.060925	0.0500003	1E-11	54.060925
31.5	8.288E-11	54.237246	0.0500006	5.14E-12	54.237246
31	7.02E-11	54.41354	0.05	9.65E-12	54.41354
30.4999	8.002E-11	54.58991	0.0499994	-5E-14	54.58991
29.9999	7.578E-11	54.766573	0.05	-1.21E-12	54.766573
29.4999	6.391E-11	54.942807	0.0499999	4.35E-12	54.942807
28.9999	5.286E-11	55.121458	0.0500001	7.94E-12	55.121458
28.5	5.485E-11	55.297764	0.05	3.83E-12	55.297764
27.9999	4.251E-11	55.498644	0.05	9.25E-12	55.498644
27.5	3.378E-11	55.675004	0.0499999	-2.36E-12	55.675004
27	1.05E-12	55.851259	0.05	-3.84E-12	55.851259
26.5	-1.042E-11	56.062065	0.0500001	-1.89E-12	56.062065
25.9999	-9.803E-11	56.238375	0.0499998	8.72E-12	56.238375
25.5	-1.1279E-10	56.414576	0.05	2.2E-13	56.414576
24.9999	-1.3098E-10	56.590893	0.0499996	6.67E-12	56.590893
24.5	-1.4417E-10	56.767204	0.05	6.94E-12	56.767204
23.9999	-1.412E-10	56.943408	0.0500003	2.64E-12	56.943408
23.4999	-1.426E-10	57.121752	0.0499997	2.49E-12	57.121752
23	-1.4831E-10	57.298038	0.0499999	4.17E-12	57.298038
22.5	-1.5095E-10	57.474204	0.0500003	5.14E-12	57.474204
21.9999	-1.3924E-10	57.660328	0.0500004	2.47E-12	57.660328
21.4999	-1.5305E-10	57.83652	0.0499998	1.304E-11	57.83652
20.9999	-1.2385E-10	58.047045	0.0500002	4.98E-12	58.047045
20.4999	-1.3507E-10	58.223207	0.0499995	5.73E-12	58.223207
19.9999	-1.4437E-10	58.399416	0.0499999	7.98E-12	58.399416
19.5	-1.3657E-10	58.576832	0.0500004	7.07E-12	58.576832
18.9999	-1.4614E-10	58.753018	0.0499994	1.355E-11	58.753018
18.4999	-1.6437E-10	58.929138	0.050001	2.28E-11	58.929138
17.9999	-1.5987E-10	59.105539	0.0500004	2.758E-11	59.105539
17.5	-1.7106E-10	59.281661	0.05	4.21E-11	59.281661
16.9999	-2.0122E-10	59.457693	0.0500005	6.531E-11	59.457693
16.4999	-2.212E-10	59.636235	0.0500002	8.627E-11	59.636235
16	-2.6478E-10	59.812433	0.0500002	1.2806E-10	59.812433
15.5	-2.3676E-10	60.013986	0.05	1.113E-10	60.013986
15	-3.2774E-10	60.190238	0.0500004	1.9574E-10	60.190238
14.5	-3.952E-10	60.366447	0.0500012	2.5804E-10	60.366447
14	-3.0106E-10	60.580815	0.0500003	1.6964E-10	60.580815
13.5	-4.4395E-10	60.756926	0.0500008	3.1268E-10	60.756926
12.9999	-5.0999E-10	60.932934	0.0500002	3.7473E-10	60.932934
12.5001	-5.463E-10	61.109095	0.0500002	4.0374E-10	61.109095
11.9999	-5.6871E-10	61.285248	0.0500009	4.2742E-10	61.285248
11.4999	-6.1322E-10	61.461305	0.0499994	4.6701E-10	61.461305
10.9999	-6.3907E-10	61.638184	0.0500001	4.9793E-10	61.638184
10.4999	-6.731E-10	61.814314	0.0500001	5.2006E-10	61.814314
10	-6.8397E-10	61.99029	0.0500002	5.3422E-10	61.99029
9.5	-7.0584E-10	62.174523	0.05	5.4954E-10	62.174523
8.9999	-6.8997E-10	62.350501	0.0500007	5.3762E-10	62.350501
8.4999	-6.7412E-10	62.561428	0.0500003	5.1633E-10	62.561428
7.9999	-7.1306E-10	62.737649	0.0500006	5.5306E-10	62.737649
7.5	-7.1073E-10	62.913721	0.0500005	5.5713E-10	62.913721
7	-7.018E-10	63.090955	0.0499997	5.4604E-10	63.090955
