#scan;iMeasureCycle=1;iMux=0;time=0.142;N=482;LocalTime=27/10/2023 15:32:34
#VGate(V);IGate(A);time(s);VDrain(V);IDrain(A);time(s)
-60.0001;-2.40E-09;0.302843;1;2.57E-11;0.302843
-59.5;-2.08E-09;0.479774;0.999999;2.16E-11;0.479774
-59.0001;-1.86E-09;0.656361;1.000001;1.81E-11;0.656361
-58.5;-1.71E-09;0.850795;0.999999;1.04E-11;0.850795
-58;-1.59E-09;1.027449;0.999999;1.02E-11;1.027449
-57.5;-1.50E-09;1.204162;0.999999;1.15E-11;1.204162
-57;-1.40E-09;1.419251;1;6.30E-12;1.419251
-56.5001;-1.33E-09;1.595996;0.999999;9.44E-12;1.595996
-56;-1.25E-09;1.772712;1;8.39E-12;1.772712
-55.5;-1.19E-09;1.949311;1;2.55E-12;1.949311
-55;-1.16E-09;2.126017;1;3.37E-12;2.126017
-54.5;-1.11E-09;2.302626;1;1.30E-12;2.302626
-54;-1.07E-09;2.479473;1;6.74E-12;2.479473
-53.5001;-1.02E-09;2.656042;0.999999;4.73E-12;2.656042
-53;-9.83E-10;2.857537;0.999999;3.98E-12;2.857537
-52.5;-9.51E-10;3.034164;0.999999;-1.51E-12;3.034164
-52.0001;-9.30E-10;3.210721;0.999999;2.58E-12;3.210721
-51.5;-8.95E-10;3.421449;1;6.42E-12;3.421449
-51.0001;-8.57E-10;3.598037;0.999999;3.28E-12;3.598037
-50.5;-8.25E-10;3.774581;0.999999;1.51E-12;3.774581
-50;-8.07E-10;3.951182;0.999999;6.90E-13;3.951182
-49.5001;-7.87E-10;4.127837;1;7.80E-13;4.127837
-49;-7.59E-10;4.304356;1;1.81E-12;4.304356
-48.5;-7.26E-10;4.481891;0.999999;-5.10E-13;4.481891
-48.0001;-7.15E-10;4.65847;0.999999;1.79E-12;4.65847
-47.5001;-6.92E-10;4.834861;0.999999;-1.99E-12;4.834861
-47;-6.77E-10;5.019612;0.999999;1.55E-12;5.019612
-46.5;-6.51E-10;5.196101;1;-9.60E-13;5.196101
-46;-6.36E-10;5.406119;1;2.51E-12;5.406119
-45.5001;-6.08E-10;5.582616;0.999999;-2.16E-12;5.582616
-45.0001;-6.01E-10;5.759151;0.999999;-4.10E-13;5.759151
-44.5;-5.84E-10;5.936145;0.999999;-2.00E-14;5.936145
-44.0001;-5.64E-10;6.112789;1;8.00E-14;6.112789
-43.5;-5.48E-10;6.28923;0.999999;2.62E-12;6.28923
-43;-5.26E-10;6.467241;0.999999;-2.44E-12;6.467241
-42.5001;-5.15E-10;6.643898;1;-3.14E-12;6.643898
-42.0001;-5.05E-10;6.820448;0.999999;2.56E-12;6.820448
-41.5;-4.79E-10;6.998851;0.999999;-1.69E-12;6.998851
-41;-4.80E-10;7.175347;0.999999;2.31E-12;7.175347
-40.5001;-4.65E-10;7.371348;1;2.79E-12;7.371348
-40;-4.43E-10;7.547878;1;1.46E-12;7.547878
-39.5001;-4.28E-10;7.724241;1;-5.60E-13;7.724241
-39.0001;-4.20E-10;7.939444;0.999999;2.22E-12;7.939444
-38.5001;-4.00E-10;8.115897;0.999999;1.70E-13;8.115897
-38;-3.91E-10;8.292236;0.999999;1.90E-12;8.292236
-37.5001;-3.79E-10;8.468574;0.999999;4.51E-12;8.468574
-37;-3.66E-10;8.645277;0.999999;7.12E-12;8.645277
-36.5;-3.45E-10;8.821602;0.999999;8.33E-12;8.821602
-36;-3.38E-10;8.998048;0.999999;1.51E-11;8.998048
-35.5001;-3.27E-10;9.17442;1;2.19E-11;9.17442
-35;-3.15E-10;9.350706;0.999999;2.81E-11;9.350706
-34.5;-3.09E-10;9.533346;1;4.18E-11;9.533346
-34.0001;-2.95E-10;9.709652;1;5.40E-11;9.709652
-33.5001;-2.85E-10;9.919987;1;6.94E-11;9.919987
-33.0001;-2.72E-10;10.096364;1;9.42E-11;10.096364
-32.5001;-2.56E-10;10.272634;0.999999;1.25E-10;10.272634
-32.0001;-2.53E-10;10.450243;1;1.65E-10;10.450243
-31.5;-2.39E-10;10.626688;1;2.12E-10;10.626688
-31.0001;-2.26E-10;10.802972;1;2.69E-10;10.802972
-30.5001;-2.16E-10;10.979606;1;3.38E-10;10.979606
-30;-2.08E-10;11.155943;0.999999;4.28E-10;11.155943
-29.5;-1.98E-10;11.332311;0.999999;5.39E-10;11.332311
-29;-1.90E-10;11.511026;0.999999;6.79E-10;11.511026
-28.5;-1.81E-10;11.687478;0.999999;8.33E-10;11.687478
-28;-1.71E-10;11.884204;1;1.00E-09;11.884204
-27.5001;-1.58E-10;12.0606;1;1.23E-09;12.0606
-27;-1.53E-10;12.236858;0.999999;1.50E-09;12.236858
-26.5001;-1.42E-10;12.448005;1;1.80E-09;12.448005
-26;-1.32E-10;12.624404;0.999999;2.15E-09;12.624404
-25.5;-1.24E-10;12.80063;1;2.67E-09;12.80063
-25;-1.13E-10;12.976942;1.000001;3.19E-09;12.976942
-24.5001;-1.06E-10;13.153366;0.999999;3.80E-09;13.153366
-24;-9.92E-11;13.32977;1.000001;4.60E-09;13.32977
-23.5;-8.49E-11;13.508539;0.999999;5.54E-09;13.508539
-23;-8.19E-11;13.684934;1;6.47E-09;13.684934
-22.5;-7.38E-11;13.861132;0.999999;7.79E-09;13.861132
-22;-6.12E-11;14.040294;1;9.18E-09;14.040294
-21.5001;-5.25E-11;14.190358;0.999999;1.09E-08;14.190358
-21.0001;-3.80E-11;14.340255;0.999999;1.34E-08;14.340255
-20.5001;-3.62E-11;14.490183;1;1.58E-08;14.490183
-20;-2.29E-11;14.640268;1.000003;1.84E-08;14.640268
-19.5001;-1.64E-11;14.790041;1.000001;2.14E-08;14.790041
-19;-1.27E-11;14.940008;0.999998;2.45E-08;14.940008
-18.5;-1.18E-12;15.089886;1.000003;2.92E-08;15.089886
-18.0001;9.70E-13;15.23972;0.999999;3.31E-08;15.23972
-17.5001;8.04E-12;15.426885;0.999997;3.91E-08;15.426885
-17.0001;8.95E-12;15.576765;1.00001;4.64E-08;15.576765
-16.5;1.72E-11;15.726777;1.000002;5.30E-08;15.726777
-16;1.71E-11;15.910899;1.000005;6.21E-08;15.910899
-15.5001;2.62E-11;16.06077;1.00001;7.31E-08;16.06077
-15;3.28E-11;16.210611;0.999992;8.65E-08;16.210611
-14.4999;4.38E-11;16.360572;0.99999;9.62E-08;16.360572
-14;4.71E-11;16.53203;1;1.04E-07;16.53203
-13.5;5.10E-11;16.681976;1;1.20E-07;16.681976
-13.0001;5.36E-11;16.831811;1;1.35E-07;16.831811
-12.5;6.24E-11;16.981822;1;1.54E-07;16.981822
-12;7.00E-11;17.131866;1;1.77E-07;17.131866
-11.5;6.99E-11;17.281647;0.999999;1.96E-07;17.281647
-11;8.07E-11;17.443307;0.999999;2.25E-07;17.443307
-10.5;8.43E-11;17.593254;1;2.59E-07;17.593254
-10.0001;8.95E-11;17.743271;1;2.84E-07;17.743271
-9.5001;8.67E-11;17.932184;1;3.16E-07;17.932184
-9.0001;9.91E-11;18.082066;1;3.47E-07;18.082066
-8.5;1.12E-10;18.231855;1.000001;3.80E-07;18.231855
-8;1.10E-10;18.417303;0.999999;4.17E-07;18.417303
-7.5;1.14E-10;18.567137;1;4.64E-07;18.567137
-7;1.21E-10;18.717013;0.999999;5.02E-07;18.717013
-6.5;1.23E-10;18.86693;1.000001;5.49E-07;18.86693
-6.0001;1.29E-10;19.032589;0.999999;6.08E-07;19.032589
-5.5001;1.38E-10;19.18239;1.000001;6.59E-07;19.18239
-5.0001;1.57E-10;19.332345;0.999999;7.21E-07;19.332345
-4.5;1.57E-10;19.48219;0.999999;8.07E-07;19.48219
-4.0001;1.58E-10;19.632229;0.999998;8.71E-07;19.632229
-3.5001;1.66E-10;19.782136;1.000002;9.21E-07;19.782136
-3.0001;1.71E-10;19.948904;1;9.89E-07;19.948904
-2.5001;1.80E-10;20.102179;1;1.07E-06;20.102179
-2.0001;1.85E-10;20.251944;1;1.15E-06;20.251944
-1.5;1.86E-10;20.438807;0.999999;1.26E-06;20.438807
-1.0001;1.99E-10;20.58867;0.999999;1.38E-06;20.58867
-0.5001;1.97E-10;20.738513;1;1.46E-06;20.738513
0;2.16E-10;20.919508;1;1.55E-06;20.919508
0.5;2.25E-10;21.069401;1;1.66E-06;21.069401
1;2.18E-10;21.219269;0.999999;1.74E-06;21.219269
1.5;2.37E-10;21.369191;0.999999;1.90E-06;21.369191
1.9999;2.37E-10;21.538932;1;2.00E-06;21.538932
2.4999;2.46E-10;21.68886;1;2.14E-06;21.68886
3;2.58E-10;21.838728;1;2.26E-06;21.838728
3.4999;2.64E-10;21.988591;1;2.41E-06;21.988591
4;2.61E-10;22.138644;0.999999;2.58E-06;22.138644
4.4999;2.78E-10;22.288451;0.999999;2.80E-06;22.288451
4.9999;2.90E-10;22.455433;1;2.94E-06;22.455433
5.5;2.92E-10;22.605347;0.999999;3.08E-06;22.605347
5.9999;3.07E-10;22.755263;0.999999;3.27E-06;22.755263
6.4999;3.04E-10;22.93561;1;3.44E-06;22.93561
7;3.13E-10;23.08561;1;3.64E-06;23.08561
7.5;2.90E-10;23.235515;0.999999;3.84E-06;23.235515
7.9999;3.50E-10;23.385399;1;4.08E-06;23.385399
8.5;2.98E-10;23.54401;1;4.24E-06;23.54401
9;3.45E-10;23.693868;0.999999;4.43E-06;23.693868
9.5;3.50E-10;23.843694;0.999999;4.67E-06;23.843694
10;3.61E-10;23.993569;1;4.89E-06;23.993569
10.4999;3.32E-10;24.143684;0.999999;5.16E-06;24.143684
10.9999;3.60E-10;24.293419;0.999999;5.38E-06;24.293419
11.4999;3.68E-10;24.456847;1;5.64E-06;24.456847
11.9999;3.76E-10;24.606659;1;5.95E-06;24.606659
12.4999;3.83E-10;24.756495;1;6.22E-06;24.756495
13;3.84E-10;24.936169;1;6.48E-06;24.936169
13.5;4.16E-10;25.086064;1;6.84E-06;25.086064
14;4.02E-10;25.2359;1;7.13E-06;25.2359
14.4999;4.11E-10;25.385712;0.999999;7.49E-06;25.385712
15;3.87E-10;25.550213;1;7.81E-06;25.550213
15.4999;4.30E-10;25.700059;1;8.12E-06;25.700059
15.9999;4.25E-10;25.849928;1;8.44E-06;25.849928
16.5;4.44E-10;25.999778;0.999999;8.80E-06;25.999778
17;4.44E-10;26.151312;1;9.21E-06;26.151312
17.5;4.45E-10;26.301122;1.000001;9.65E-06;26.301122
18;4.52E-10;26.466329;1.000001;9.91E-06;26.466329
18.4999;4.73E-10;26.619505;1;1.03E-05;26.619505
19;4.75E-10;26.769419;1;1.07E-05;26.769419
19.5;4.67E-10;26.95696;1;1.10E-05;26.95696
19.9999;4.77E-10;27.106876;1;1.15E-05;27.106876
20.4999;5.56E-10;27.256764;0.999999;1.19E-05;27.256764
21;4.49E-10;27.441038;0.999999;1.23E-05;27.441038
21.5;4.94E-10;27.591088;1;1.28E-05;27.591088
22;4.93E-10;27.741139;1;1.32E-05;27.741139
22.5;5.11E-10;27.891134;1;1.37E-05;27.891134
22.9999;4.97E-10;28.056919;1;1.41E-05;28.056919
23.4999;5.26E-10;28.206943;1.000001;1.46E-05;28.206943
23.9999;5.41E-10;28.357046;0.999999;1.50E-05;28.357046
24.5;5.23E-10;28.507014;1;1.55E-05;28.507014
25;5.21E-10;28.657983;0.999999;1.59E-05;28.657983
25.4999;5.72E-10;28.808069;1;1.63E-05;28.808069
25.9999;5.56E-10;28.991417;1;1.67E-05;28.991417
26.4999;5.69E-10;29.14157;1;1.71E-05;29.14157
27;5.52E-10;29.29162;0.999999;1.76E-05;29.29162
27.5;5.40E-10;29.47462;0.999999;1.82E-05;29.47462
28;5.82E-10;29.624608;1.000001;1.86E-05;29.624608
28.4999;5.80E-10;29.774646;0.999999;1.89E-05;29.774646
29;6.07E-10;29.959534;1;1.93E-05;29.959534
29.4999;5.76E-10;30.109637;0.999998;1.99E-05;30.109637
29.9999;6.34E-10;30.259643;1;2.05E-05;30.259643
30.4999;6.09E-10;30.449095;0.999999;2.09E-05;30.449095
31;6.25E-10;30.599145;0.999999;2.13E-05;30.599145
31.4999;6.09E-10;30.749168;1;2.19E-05;30.749168
32;6.25E-10;30.899133;0.999999;2.23E-05;30.899133
32.4999;6.16E-10;31.064556;1;2.29E-05;31.064556
33;6.55E-10;31.214652;1;2.33E-05;31.214652
33.4999;6.16E-10;31.364832;0.999999;2.38E-05;31.364832
34;6.75E-10;31.515026;0.999999;2.43E-05;31.515026
34.5;6.72E-10;31.666717;0.999999;2.47E-05;31.666717
35;6.80E-10;31.816817;1;2.52E-05;31.816817
35.5;6.86E-10;31.982189;0.999999;2.55E-05;31.982189
36;6.74E-10;32.13235;0.999999;2.60E-05;32.13235
36.5;7.00E-10;32.282505;0.999999;2.66E-05;32.282505
36.9999;6.83E-10;32.470361;1;2.70E-05;32.470361
37.5;7.02E-10;32.620506;1;2.74E-05;32.620506
37.9999;7.22E-10;32.770705;0.999999;2.78E-05;32.770705
38.4999;7.27E-10;32.951051;0.999999;2.81E-05;32.951051
39;7.59E-10;33.101221;1.000001;2.85E-05;33.101221
39.5;7.46E-10;33.251367;1;2.88E-05;33.251367
40;7.35E-10;33.401659;0.999999;2.92E-05;33.401659
40.4999;7.40E-10;33.571059;0.999999;2.96E-05;33.571059
41;7.56E-10;33.721367;1.000002;2.99E-05;33.721367
41.5;7.68E-10;33.871524;0.999999;3.02E-05;33.871524
41.9999;7.78E-10;34.021765;1;3.06E-05;34.021765
42.4999;7.85E-10;34.173142;0.999999;3.08E-05;34.173142
42.9999;8.09E-10;34.323376;1;3.12E-05;34.323376
43.5;7.81E-10;34.488118;1;3.15E-05;34.488118
43.9999;8.40E-10;34.638353;1;3.17E-05;34.638353
44.5;8.27E-10;34.788642;1.000001;3.21E-05;34.788642
45;8.10E-10;34.976617;0.999999;3.25E-05;34.976617
45.5;8.56E-10;35.126925;0.999997;3.29E-05;35.126925
46;8.49E-10;35.277179;1;3.29E-05;35.277179
46.4999;8.30E-10;35.461722;1.000001;3.35E-05;35.461722
47;8.53E-10;35.611956;1.000001;3.38E-05;35.611956
47.4999;8.57E-10;35.762292;1;3.38E-05;35.762292
47.9999;8.47E-10;35.912601;1;3.40E-05;35.912601
48.5;8.48E-10;36.077486;0.999998;3.45E-05;36.077486
49;8.88E-10;36.227769;1.000001;3.45E-05;36.227769
49.5;8.36E-10;36.378052;0.999999;3.50E-05;36.378052
49.9999;8.90E-10;36.528291;0.999999;3.52E-05;36.528291
50.5;8.89E-10;36.679617;1;3.54E-05;36.679617
51;9.15E-10;36.83003;1;3.56E-05;36.83003
51.4999;8.74E-10;36.994514;0.999999;3.58E-05;36.994514
51.9999;9.24E-10;37.144802;1;3.59E-05;37.144802
52.5;9.16E-10;37.295125;0.999998;3.62E-05;37.295125
53;8.99E-10;37.483432;0.999999;3.65E-05;37.483432
53.5;9.30E-10;37.633742;0.999998;3.69E-05;37.633742
53.9999;9.35E-10;37.784032;0.999999;3.72E-05;37.784032
54.4999;9.27E-10;37.968568;0.999999;3.73E-05;37.968568
54.9999;9.87E-10;38.118945;1.000001;3.75E-05;38.118945
55.4999;9.72E-10;38.26929;1;3.74E-05;38.26929
55.9999;9.66E-10;38.419689;1.000002;3.79E-05;38.419689
56.4999;9.92E-10;38.583901;1.000001;3.82E-05;38.583901
57;1.01E-09;38.734277;1.000001;3.84E-05;38.734277
57.4999;1.00E-09;38.884542;0.999999;3.87E-05;38.884542
58;9.86E-10;39.034846;1;3.93E-05;39.034846
58.5;9.84E-10;39.186152;0.999999;3.99E-05;39.186152
59;1.05E-09;39.336523;1.000006;3.95E-05;39.336523
59.4999;1.04E-09;39.501411;1;3.98E-05;39.501411
60;1.05E-09;39.652045;1.000002;3.99E-05;39.652045
60;1.02E-09;39.774477;1;3.95E-05;39.774477
59.5;9.16E-10;39.924804;0.999999;4.11E-05;39.924804
58.9999;8.65E-10;40.087816;0.999999;4.10E-05;40.087816
58.4999;8.28E-10;40.238168;1.000001;4.11E-05;40.238168
57.9999;8.50E-10;40.388677;1.000001;3.87E-05;40.388677
57.4999;7.74E-10;40.539008;0.999999;3.82E-05;40.539008
57;7.53E-10;40.690119;0.999998;3.80E-05;40.690119
56.4999;7.15E-10;40.840491;0.999998;3.78E-05;40.840491
56;6.62E-10;41.005329;0.999998;3.77E-05;41.005329
55.4999;6.07E-10;41.155718;0.999996;3.73E-05;41.155718
54.9999;7.10E-10;41.305977;1.000004;3.68E-05;41.305977
54.4999;6.46E-10;41.49505;1;3.67E-05;41.49505
54;6.87E-10;41.64532;1.000001;3.61E-05;41.64532
53.5;5.11E-10;41.795754;0.999997;3.58E-05;41.795754
52.9999;6.81E-10;41.978705;1.000003;3.56E-05;41.978705
52.5;5.70E-10;42.129081;1.000004;3.55E-05;42.129081
52;6.44E-10;42.279382;1.000005;3.52E-05;42.279382
51.5;6.35E-10;42.429652;1.000004;3.48E-05;42.429652
50.9999;6.11E-10;42.594109;1.000004;3.44E-05;42.594109
50.4999;4.89E-10;42.744464;1.000002;3.44E-05;42.744464
50;4.95E-10;42.894653;1;3.36E-05;42.894653
49.5;5.91E-10;43.044913;1.000004;3.37E-05;43.044913
49;4.80E-10;43.196533;0.999999;3.30E-05;43.196533
48.5;4.72E-10;43.346753;0.999999;3.26E-05;43.346753
48;4.36E-10;43.511661;0.999999;3.24E-05;43.511661
47.4999;4.53E-10;43.662032;1.000001;3.21E-05;43.662032
47;4.33E-10;43.812376;0.999999;3.17E-05;43.812376
46.5;4.15E-10;43.996337;1;3.14E-05;43.996337
45.9999;4.08E-10;44.146559;1.000001;3.11E-05;44.146559
45.5;4.04E-10;44.296779;0.999999;3.07E-05;44.296779
44.9999;3.88E-10;44.480868;1;3.03E-05;44.480868
44.4999;3.78E-10;44.631181;1;3.00E-05;44.631181
43.9999;3.69E-10;44.781444;0.999999;2.97E-05;44.781444
43.5;3.31E-10;44.931611;0.999999;2.93E-05;44.931611
43;3.46E-10;45.100504;1;2.89E-05;45.100504
42.5;3.32E-10;45.250739;0.999999;2.85E-05;45.250739
41.9999;2.91E-10;45.401032;0.999999;2.80E-05;45.401032
41.5;3.07E-10;45.551294;1;2.76E-05;45.551294
41;2.97E-10;45.702514;1;2.71E-05;45.702514
40.5001;2.97E-10;45.85277;1;2.66E-05;45.85277
39.9999;2.67E-10;46.01794;0.999999;2.62E-05;46.01794
39.4999;2.64E-10;46.168191;1;2.57E-05;46.168191
38.9999;2.67E-10;46.318472;1;2.54E-05;46.318472
38.5;2.54E-10;46.502819;1;2.49E-05;46.502819
38;2.67E-10;46.652917;1.000001;2.44E-05;46.652917
37.5;2.46E-10;46.803002;1;2.39E-05;46.803002
37;2.33E-10;46.987141;0.999999;2.35E-05;46.987141
36.5;2.31E-10;47.137332;1;2.29E-05;47.137332
35.9999;2.38E-10;47.287465;0.999999;2.24E-05;47.287465
35.4999;2.14E-10;47.437695;0.999999;2.18E-05;47.437695
35;2.05E-10;47.606722;1;2.12E-05;47.606722
34.4999;1.82E-10;47.756879;1;2.08E-05;47.756879
34;1.85E-10;47.90693;1;2.03E-05;47.90693
33.5;1.75E-10;48.056945;0.999999;1.97E-05;48.056945
32.9999;1.80E-10;48.208863;1;1.91E-05;48.208863
32.4999;1.60E-10;48.35884;0.999999;1.86E-05;48.35884
32;1.43E-10;48.524234;1;1.80E-05;48.524234
31.4999;1.39E-10;48.674265;0.999999;1.77E-05;48.674265
30.9999;1.36E-10;48.824373;0.999999;1.71E-05;48.824373
30.5;1.24E-10;49.008627;1;1.64E-05;49.008627
30;1.24E-10;49.158794;1;1.60E-05;49.158794
29.4999;1.14E-10;49.308815;1;1.55E-05;49.308815
29;1.13E-10;49.498053;1;1.50E-05;49.498053
28.5;9.19E-11;49.648132;1;1.45E-05;49.648132
27.9999;8.72E-11;49.798216;0.999999;1.39E-05;49.798216
27.4999;8.51E-11;49.948189;0.999999;1.35E-05;49.948189
27;7.67E-11;50.114022;0.999999;1.30E-05;50.114022
26.5;8.18E-11;50.264071;1;1.25E-05;50.264071
26;6.89E-11;50.414129;1.000001;1.21E-05;50.414129
25.5;6.52E-11;50.564106;1;1.15E-05;50.564106
25;4.43E-11;50.715144;1;1.10E-05;50.715144
24.5;5.63E-11;50.865166;0.999999;1.07E-05;50.865166
24;4.31E-11;51.030616;1.000001;1.02E-05;51.030616
23.4999;2.93E-11;51.180638;1;9.79E-06;51.180638
22.9999;3.27E-11;51.330596;1.000001;9.31E-06;51.330596
22.5;1.94E-11;51.522583;0.999999;8.86E-06;51.522583
21.9999;4.82E-12;51.672813;0.999999;8.44E-06;51.672813
21.5;1.31E-11;51.822873;1;8.00E-06;51.822873
21;8.98E-12;52.00511;1;7.65E-06;52.00511
20.5;6.97E-12;52.154968;1;7.24E-06;52.154968
20;-1.44E-11;52.305011;1;6.85E-06;52.305011
19.4999;-1.43E-11;52.454959;0.999999;6.43E-06;52.454959
19;-1.60E-11;52.619403;0.999999;6.11E-06;52.619403
18.5;-2.86E-11;52.769272;0.999999;5.74E-06;52.769272
17.9999;-3.55E-11;52.919235;1;5.39E-06;52.919235
17.5;-4.34E-11;53.069082;1;5.03E-06;53.069082
17;-4.44E-11;53.21925;1;4.76E-06;53.21925
16.5;-5.22E-11;53.369056;1;4.46E-06;53.369056
15.9999;-4.78E-11;53.532389;0.999999;4.22E-06;53.532389
15.4999;-6.00E-11;53.682271;1;3.94E-06;53.682271
14.9999;-5.66E-11;53.832233;1;3.70E-06;53.832233
14.5;-5.73E-11;54.023573;1;3.42E-06;54.023573
14;-7.75E-11;54.173387;1;3.23E-06;54.173387
13.5;-7.89E-11;54.323217;1;2.98E-06;54.323217
13;-7.58E-11;54.507261;1;2.77E-06;54.507261
12.4999;-8.54E-11;54.657171;1;2.58E-06;54.657171
12;-9.51E-11;54.807106;1;2.41E-06;54.807106
11.4999;-9.77E-11;54.956895;1;2.22E-06;54.956895
10.9999;-1.05E-10;55.126723;1;2.01E-06;55.126723
10.4999;-1.15E-10;55.276628;1;1.88E-06;55.276628
9.9999;-1.21E-10;55.426582;1;1.71E-06;55.426582
9.4999;-1.26E-10;55.57647;1;1.57E-06;55.57647
9;-1.32E-10;55.726469;1;1.45E-06;55.726469
8.4999;-1.33E-10;55.876348;0.999999;1.32E-06;55.876348
7.9999;-1.42E-10;56.043084;1;1.22E-06;56.043084
7.4999;-1.53E-10;56.192976;1;1.11E-06;56.192976
6.9999;-1.60E-10;56.342827;1;1.00E-06;56.342827
6.4999;-1.58E-10;56.532496;0.999999;8.99E-07;56.532496
5.9999;-1.69E-10;56.685169;1;8.13E-07;56.685169
5.5;-1.77E-10;56.834992;1.000001;7.24E-07;56.834992
4.9999;-1.80E-10;57.017627;1;6.46E-07;57.017627
4.4999;-1.94E-10;57.16765;1;5.81E-07;57.16765
4;-1.98E-10;57.3175;1;5.25E-07;57.3175
3.5;-2.08E-10;57.467377;1;4.68E-07;57.467377
2.9999;-2.12E-10;57.633103;1;4.11E-07;57.633103
2.5;-2.30E-10;57.783053;0.999999;3.68E-07;57.783053
2;-2.33E-10;57.932876;1;3.20E-07;57.932876
1.4999;-2.37E-10;58.082741;1;2.83E-07;58.082741
1;-2.49E-10;58.234421;0.999999;2.48E-07;58.234421
0.5;-2.60E-10;58.38427;0.999999;2.14E-07;58.38427
0;-2.59E-10;58.549852;0.999999;1.85E-07;58.549852
-0.5001;-2.76E-10;58.699679;0.999999;1.55E-07;58.699679
-1;-2.77E-10;58.849628;0.999999;1.32E-07;58.849628
-1.5;-2.84E-10;59.03489;1;1.09E-07;59.03489
-2.0001;-2.88E-10;59.184908;1;8.97E-08;59.184908
-2.5;-2.93E-10;59.351995;0.999993;7.12E-08;59.351995
-3.0001;-2.98E-10;59.543265;0.999999;5.78E-08;59.543265
-3.5001;-3.17E-10;59.693191;1.000001;4.57E-08;59.693191
-4.0001;-3.18E-10;59.84306;0.999998;3.55E-08;59.84306
-4.5;-3.18E-10;60.025556;0.999997;2.77E-08;60.025556
-5;-3.39E-10;60.175498;0.999999;2.12E-08;60.175498
-5.5;-3.48E-10;60.325429;1.000001;1.68E-08;60.325429
-6.0001;-3.52E-10;60.475288;0.999999;1.28E-08;60.475288
-6.5;-3.57E-10;60.655634;0.999999;8.97E-09;60.655634
-7;-3.63E-10;60.831794;0.999998;5.69E-09;60.831794
-7.5001;-3.61E-10;61.044578;0.999999;3.68E-09;61.044578
-8.0001;-3.66E-10;61.220672;1;2.27E-09;61.220672
-8.5001;-3.72E-10;61.396757;1.000001;1.44E-09;61.396757
-9.0001;-3.77E-10;61.584534;1;9.06E-10;61.584534
-9.5;-3.79E-10;61.760935;1;5.92E-10;61.760935
-10;-3.88E-10;61.936967;1;3.96E-10;61.936967
-10.5;-3.96E-10;62.113183;1;2.69E-10;62.113183
-11;-4.03E-10;62.289434;0.999999;1.79E-10;62.289434
-11.5001;-4.13E-10;62.46556;1;1.24E-10;62.46556
-12;-4.18E-10;62.641926;1;8.20E-11;62.641926
-12.5;-4.28E-10;62.818224;1;6.04E-11;62.818224
-13.0001;-4.30E-10;63.016339;0.999999;3.94E-11;63.016339
-13.5001;-4.33E-10;63.192527;1;2.82E-11;63.192527
-14;-4.39E-10;63.368666;1;1.94E-11;63.368666
-14.5001;-4.49E-10;63.581803;0.999999;1.47E-11;63.581803
-15.0001;-4.58E-10;63.758062;1;1.09E-11;63.758062
-15.5001;-4.74E-10;63.93428;1;9.93E-12;63.93428
-16.0001;-4.74E-10;64.110421;0.999999;8.19E-12;64.110421
-16.5;-4.72E-10;64.286624;1;3.95E-12;64.286624
-17;-4.79E-10;64.462903;0.999999;2.73E-12;64.462903
-17.5;-4.92E-10;64.640365;0.999999;1.00E-12;64.640365
-18.0001;-4.99E-10;64.816545;1;2.08E-12;64.816545
-18.5001;-5.06E-10;64.992584;1;2.96E-12;64.992584
