#scan;iMeasureCycle=1;iMux=0;time=0.138;N=482;LocalTime=31/10/2023 13:23:03
#VGate(V);IGate(A);time(s);VDrain(V);IDrain(A);time(s)
-60;-5.87E-09;0.298551;0.1;4.44E-09;0.298551
-59.5;-4.16E-09;0.475511;0.1000003;2.94E-09;0.475511
-59.0001;-3.28E-09;0.652243;0.1;2.19E-09;0.652243
-58.5;-2.86E-09;0.846635;0.1000004;1.87E-09;0.846635
-58.0001;-2.33E-09;1.024062;0.1000002;1.40E-09;1.024062
-57.5001;-2.01E-09;1.200711;0.1;1.13E-09;1.200711
-57;-1.72E-09;1.409171;0.1000003;8.93E-10;1.409171
-56.5001;-1.47E-09;1.585746;0.1000003;6.99E-10;1.585746
-56.0001;-1.29E-09;1.762402;0.0999996;5.51E-10;1.762402
-55.5001;-1.17E-09;1.938942;0.1000002;4.59E-10;1.938942
-55.0001;-1.03E-09;2.115557;0.1000002;3.46E-10;2.115557
-54.5001;-9.29E-10;2.29204;0.1000004;2.73E-10;2.29204
-54;-8.39E-10;2.468839;0.0999997;2.16E-10;2.468839
-53.5001;-7.80E-10;2.645498;0.0999998;1.81E-10;2.645498
-53;-7.06E-10;2.821984;0.1000001;1.27E-10;2.821984
-52.5;-6.39E-10;3.009655;0.1000001;7.70E-11;3.009655
-52.0001;-5.97E-10;3.186248;0.1000002;5.44E-11;3.186248
-51.5;-5.60E-10;3.39289;0.1;3.01E-11;3.39289
-51;-5.08E-10;3.569429;0.0999999;5.04E-12;3.569429
-50.5001;-4.86E-10;3.746076;0.1000002;-2.43E-12;3.746076
-50;-4.54E-10;3.922591;0.0999996;-1.64E-11;3.922591
-49.5001;-4.31E-10;4.099256;0.1000004;-3.14E-11;4.099256
-49;-3.94E-10;4.275842;0.0999998;-5.67E-11;4.275842
-48.5;-3.49E-10;4.453992;0.0999996;-8.38E-11;4.453992
-48.0001;-3.23E-10;4.630684;0.0999998;-1.03E-10;4.630684
-47.5001;-2.74E-10;4.807174;0.0999998;-1.42E-10;4.807174
-47.0001;-2.30E-10;4.985725;0.1000001;-1.72E-10;4.985725
-46.5;-1.79E-10;5.162337;0.0999996;-2.10E-10;5.162337
-46;-1.70E-10;5.359081;0.1;-2.16E-10;5.359081
-45.5;-1.03E-10;5.535688;0.1000002;-2.72E-10;5.535688
-45;-3.63E-11;5.712265;0.0999999;-3.22E-10;5.712265
-44.5001;-1.98E-11;5.925239;0.1000001;-3.37E-10;5.925239
-44;2.23E-11;6.101729;0.0999998;-3.66E-10;6.101729
-43.5;6.88E-11;6.278359;0.1000003;-3.98E-10;6.278359
-43;1.13E-10;6.454659;0.1000002;-4.33E-10;6.454659
-42.5;1.40E-10;6.631349;0.1;-4.53E-10;6.631349
-42.0001;1.60E-10;6.807723;0.1000002;-4.64E-10;6.807723
-41.4999;1.71E-10;6.986536;0.0999998;-4.67E-10;6.986536
-41;2.04E-10;7.16304;0.1;-4.87E-10;7.16304
-40.5;2.25E-10;7.339718;0.1;-5.02E-10;7.339718
-40;2.71E-10;7.521183;0.1000001;-5.38E-10;7.521183
-39.5001;2.83E-10;7.697519;0.1000001;-5.40E-10;7.697519
-39.0001;3.34E-10;7.905495;0.0999999;-5.83E-10;7.905495
-38.5;3.63E-10;8.081849;0.1;-6.01E-10;8.081849
-38.0001;3.93E-10;8.258182;0.0999996;-6.23E-10;8.258182
-37.5;4.18E-10;8.435745;0.1000001;-6.31E-10;8.435745
-37;4.25E-10;8.61216;0.1000003;-6.22E-10;8.61216
-36.5;4.71E-10;8.788431;0.0999999;-6.48E-10;8.788431
-36;4.68E-10;8.966468;0.0999998;-6.30E-10;8.966468
-35.5001;4.89E-10;9.14285;0.0999993;-6.30E-10;9.14285
-35.0001;5.26E-10;9.319231;0.1000001;-6.30E-10;9.319231
-34.5;5.07E-10;9.497598;0.0999995;-5.75E-10;9.497598
-34.0001;5.22E-10;9.674104;0.0999998;-5.51E-10;9.674104
-33.5;5.39E-10;9.872569;0.0999996;-5.19E-10;9.872569
-33;5.78E-10;10.049048;0.0999998;-4.87E-10;10.049048
-32.5001;6.22E-10;10.225622;0.1;-4.44E-10;10.225622
-32;5.95E-10;10.43848;0.1000001;-3.17E-10;10.43848
-31.5;6.48E-10;10.614778;0.1000002;-2.19E-10;10.614778
-31.0001;6.53E-10;10.791096;0.1000007;-3.94E-11;10.791096
-30.5001;6.59E-10;10.967285;0.0999999;1.69E-10;10.967285
-30.0001;7.01E-10;11.14375;0.1;4.00E-10;11.14375
-29.5001;7.27E-10;11.319962;0.0999997;6.85E-10;11.319962
-29;7.69E-10;11.498729;0.0999999;1.04E-09;11.498729
-28.5;7.47E-10;11.675219;0.0999997;1.52E-09;11.675219
-28.0001;7.95E-10;11.851585;0.1;1.97E-09;11.851585
-27.5001;8.34E-10;12.034386;0.1000004;2.47E-09;12.034386
-27.0001;8.20E-10;12.210829;0.1;3.18E-09;12.210829
-26.5001;8.06E-10;12.414842;0.1000006;3.78E-09;12.414842
-26;8.08E-10;12.591102;0.1000001;4.84E-09;12.591102
-25.5;8.37E-10;12.767342;0.1;5.63E-09;12.767342
-25.0001;8.82E-10;12.944621;0.0999999;6.60E-09;12.944621
-24.5001;8.92E-10;13.120783;0.0999998;7.76E-09;13.120783
-24.0001;9.05E-10;13.297302;0.0999992;8.92E-09;13.297302
-23.5001;9.67E-10;13.467638;0.0999999;1.04E-08;13.467638
-23;1.01E-09;13.617746;0.1000008;1.17E-08;13.617746
-22.5001;1.13E-09;13.767825;0.099999;1.29E-08;13.767825
-22;1.12E-09;13.925262;0.0999988;1.46E-08;13.925262
-21.5001;1.12E-09;14.075302;0.099999;1.66E-08;14.075302
-21.0001;1.17E-09;14.225135;0.0999998;1.82E-08;14.225135
-20.5001;1.14E-09;14.399793;0.0999998;2.03E-08;14.399793
-20.0001;1.25E-09;14.5497;0.0999991;2.27E-08;14.5497
-19.5001;1.23E-09;14.69951;0.1000007;2.42E-08;14.69951
-19;1.28E-09;14.849275;0.0999975;2.63E-08;14.849275
-18.5;1.31E-09;15.015782;0.1000038;2.90E-08;15.015782
-18.0001;1.29E-09;15.165676;0.1000022;3.24E-08;15.165676
-17.5;1.42E-09;15.315539;0.1000034;3.45E-08;15.315539
-17;1.40E-09;15.46553;0.0999971;3.76E-08;15.46553
-16.5001;1.39E-09;15.615746;0.1000023;4.03E-08;15.615746
-16.0001;1.54E-09;15.765631;0.0999995;4.25E-08;15.765631
-15.5;1.39E-09;15.929976;0.0999955;4.62E-08;15.929976
-15;1.46E-09;16.079882;0.100001;4.90E-08;16.079882
-14.5001;1.50E-09;16.229897;0.1000032;5.28E-08;16.229897
-14.0001;1.51E-09;16.404918;0.099999;5.54E-08;16.404918
-13.5;1.62E-09;16.554831;0.0999983;5.90E-08;16.554831
-13;1.75E-09;16.704668;0.1000004;6.20E-08;16.704668
-12.5001;1.85E-09;16.854419;0.1000037;6.55E-08;16.854419
-12.0001;1.91E-09;17.020626;0.1000032;6.81E-08;17.020626
-11.5001;2.06E-09;17.170481;0.0999948;7.39E-08;17.170481
-11.0001;1.98E-09;17.320417;0.1000054;7.77E-08;17.320417
-10.5001;1.99E-09;17.470248;0.0999938;8.12E-08;17.470248
-10;2.26E-09;17.620609;0.1000018;8.53E-08;17.620609
-9.5;1.99E-09;17.770451;0.1000038;9.13E-08;17.770451
-9;1.96E-09;17.934908;0.0999976;9.53E-08;17.934908
-8.5001;2.00E-09;18.084812;0.1000031;1.00E-07;18.084812
-8.0001;1.94E-09;18.240575;0.0999998;1.04E-07;18.240575
-7.5001;1.71E-09;18.428354;0.0999998;1.09E-07;18.428354
-7.0001;1.75E-09;18.5782;0.1000001;1.15E-07;18.5782
-6.5;1.70E-09;18.728295;0.1;1.22E-07;18.728295
-6.0001;1.49E-09;18.909633;0.0999997;1.26E-07;18.909633
-5.5;1.37E-09;19.059705;0.0999999;1.34E-07;19.059705
-5.0001;1.43E-09;19.20964;0.1000004;1.39E-07;19.20964
-4.5001;1.35E-09;19.359432;0.0999999;1.45E-07;19.359432
-4;1.30E-09;19.526826;0.0999999;1.51E-07;19.526826
-3.5001;1.30E-09;19.676795;0.0999996;1.59E-07;19.676795
-3.0001;1.33E-09;19.82663;0.1000001;1.66E-07;19.82663
-2.5001;1.32E-09;19.976468;0.0999998;1.73E-07;19.976468
-2;1.30E-09;20.126836;0.1000001;1.81E-07;20.126836
-1.5001;1.25E-09;20.276745;0.0999998;1.86E-07;20.276745
-1.0001;1.20E-09;20.441178;0.1;1.95E-07;20.441178
-0.5;1.17E-09;20.591108;0.1000002;2.05E-07;20.591108
0;1.14E-09;20.74102;0.0999996;2.12E-07;20.74102
0.5;9.51E-10;20.916248;0.1;2.21E-07;20.916248
0.9999;1.01E-09;21.066113;0.1000002;2.30E-07;21.066113
1.4999;1.11E-09;21.216117;0.1;2.39E-07;21.216117
2;1.26E-09;21.365941;0.0999998;2.50E-07;21.365941
2.4999;1.37E-09;21.531769;0.1000001;2.58E-07;21.531769
3;1.43E-09;21.68171;0.0999998;2.71E-07;21.68171
3.5;1.40E-09;21.831502;0.1000002;2.83E-07;21.831502
4;1.24E-09;21.981328;0.1000004;2.93E-07;21.981328
4.5;1.15E-09;22.131671;0.0999996;3.08E-07;22.131671
5;1.05E-09;22.281557;0.1000001;3.18E-07;22.281557
5.5;8.48E-10;22.445742;0.0999999;3.31E-07;22.445742
6;8.34E-10;22.595601;0.0999999;3.43E-07;22.595601
6.4999;7.97E-10;22.745483;0.1000001;3.58E-07;22.745483
7;5.54E-10;22.916991;0.1000003;3.67E-07;22.916991
7.4999;6.69E-10;23.06687;0.1000006;3.78E-07;23.06687
7.9999;5.81E-10;23.216902;0.1000005;3.96E-07;23.216902
8.5;5.18E-10;23.366731;0.1000004;4.06E-07;23.366731
9;4.60E-10;23.536665;0.100001;4.20E-07;23.536665
9.5;4.18E-10;23.686553;0.1;4.39E-07;23.686553
10;3.64E-10;23.836408;0.0999992;4.55E-07;23.836408
10.5;3.33E-10;23.986235;0.1000007;4.69E-07;23.986235
10.9999;2.94E-10;24.136571;0.0999999;4.85E-07;24.136571
11.4999;2.76E-10;24.286463;0.1000004;4.99E-07;24.286463
11.9999;2.40E-10;24.450884;0.1000002;5.17E-07;24.450884
12.4999;2.50E-10;24.600763;0.0999997;5.36E-07;24.600763
12.9999;2.50E-10;24.750692;0.1000002;5.50E-07;24.750692
13.5001;2.16E-10;24.926274;0.1000006;5.66E-07;24.926274
14;2.34E-10;25.076104;0.1000002;5.83E-07;25.076104
14.4999;2.38E-10;25.226138;0.0999997;6.06E-07;25.226138
15;2.30E-10;25.37601;0.1000001;6.22E-07;25.37601
15.5;2.47E-10;25.541585;0.0999994;6.46E-07;25.541585
16;2.47E-10;25.691516;0.1000005;6.66E-07;25.691516
16.4999;2.49E-10;25.841303;0.1000009;6.79E-07;25.841303
16.9999;2.58E-10;25.991152;0.1000004;7.03E-07;25.991152
17.4999;2.68E-10;26.141625;0.1000013;7.18E-07;26.141625
18;2.62E-10;26.291539;0.100001;7.40E-07;26.291539
18.5;2.64E-10;26.455857;0.0999998;7.62E-07;26.455857
19;2.62E-10;26.605759;0.0999996;7.85E-07;26.605759
19.5;2.72E-10;26.755689;0.1000003;8.02E-07;26.755689
19.9999;2.66E-10;26.959902;0.1000002;8.24E-07;26.959902
20.4999;2.84E-10;27.109811;0.1000003;8.44E-07;27.109811
21;2.93E-10;27.259844;0.0999989;8.64E-07;27.259844
21.5;2.85E-10;27.44731;0.0999994;8.85E-07;27.44731
21.9999;3.02E-10;27.597395;0.1000006;9.13E-07;27.597395
22.4999;2.99E-10;27.747457;0.1;9.33E-07;27.747457
22.9999;2.99E-10;27.932459;0.1000005;9.52E-07;27.932459
23.5;3.07E-10;28.082584;0.1000002;9.82E-07;28.082584
24;3.09E-10;28.232796;0.1000003;1.00E-06;28.232796
24.5;3.18E-10;28.386124;0.1;1.02E-06;28.386124
24.9999;3.21E-10;28.549449;0.1;1.04E-06;28.549449
25.4999;3.35E-10;28.699704;0.1;1.07E-06;28.699704
26;3.30E-10;28.849682;0.0999998;1.09E-06;28.849682
26.4999;3.33E-10;28.999728;0.1000001;1.11E-06;28.999728
27;3.45E-10;29.149815;0.0999999;1.14E-06;29.149815
27.4999;3.37E-10;29.299878;0.0999999;1.17E-06;29.299878
28;3.45E-10;29.464017;0.0999998;1.19E-06;29.464017
28.4999;3.54E-10;29.614086;0.1000001;1.22E-06;29.614086
29;3.48E-10;29.764137;0.0999999;1.24E-06;29.764137
29.5;3.55E-10;29.93541;0.1;1.26E-06;29.93541
30;3.48E-10;30.0855;0.1;1.29E-06;30.0855
30.5;3.71E-10;30.235692;0.1000001;1.32E-06;30.235692
30.9999;3.66E-10;30.38591;0.1;1.34E-06;30.38591
31.4999;3.86E-10;30.554413;0.1000001;1.37E-06;30.554413
32;3.84E-10;30.70461;0.0999998;1.40E-06;30.70461
32.5;3.89E-10;30.854666;0.0999999;1.42E-06;30.854666
33;3.97E-10;31.004717;0.1000001;1.46E-06;31.004717
33.4999;4.05E-10;31.155331;0.1;1.49E-06;31.155331
33.9999;4.24E-10;31.305367;0.1;1.51E-06;31.305367
34.5;4.35E-10;31.469264;0.1000002;1.54E-06;31.469264
35;4.52E-10;31.619405;0.1;1.58E-06;31.619405
35.4999;4.60E-10;31.769534;0.1000002;1.60E-06;31.769534
36;4.46E-10;31.953757;0.0999999;1.61E-06;31.953757
36.5;4.67E-10;32.103911;0.0999998;1.64E-06;32.103911
37;4.67E-10;32.254316;0.1;1.67E-06;32.254316
37.4999;4.80E-10;32.404405;0.0999999;1.70E-06;32.404405
37.9999;4.85E-10;32.559375;0.1000001;1.73E-06;32.559375
38.4999;4.86E-10;32.709702;0.0999998;1.76E-06;32.709702
39;4.96E-10;32.859817;0.0999999;1.78E-06;32.859817
39.5;5.07E-10;33.009997;0.0999998;1.80E-06;33.009997
39.9999;5.19E-10;33.16009;0.0999999;1.85E-06;33.16009
40.5;5.14E-10;33.310336;0.1;1.88E-06;33.310336
41;5.14E-10;33.474183;0.0999999;1.91E-06;33.474183
41.4999;5.28E-10;33.624327;0.0999998;1.95E-06;33.624327
42;5.21E-10;33.774508;0.1;1.97E-06;33.774508
42.5;5.39E-10;33.966643;0.0999999;2.01E-06;33.966643
43;5.37E-10;34.11681;0.1;2.04E-06;34.11681
43.4999;5.43E-10;34.267121;0.1000001;2.06E-06;34.267121
44;5.60E-10;34.449143;0.0999998;2.11E-06;34.449143
44.4999;5.53E-10;34.599499;0.1000001;2.13E-06;34.599499
45;5.70E-10;34.749766;0.1000001;2.16E-06;34.749766
45.5;5.57E-10;34.89992;0.1;2.20E-06;34.89992
46;5.73E-10;35.065683;0.0999999;2.24E-06;35.065683
46.4999;5.76E-10;35.215935;0.1000002;2.27E-06;35.215935
47;5.85E-10;35.366184;0.0999998;2.31E-06;35.366184
47.4999;5.86E-10;35.516377;0.0999998;2.34E-06;35.516377
48;5.98E-10;35.666734;0.1000001;2.38E-06;35.666734
48.5;6.06E-10;35.816989;0.1;2.39E-06;35.816989
49;6.14E-10;35.980679;0.0999998;2.43E-06;35.980679
49.5;6.09E-10;36.131014;0.0999999;2.47E-06;36.131014
49.9999;6.18E-10;36.281407;0.1;2.51E-06;36.281407
50.4999;6.08E-10;36.460994;0.1000001;2.53E-06;36.460994
50.9999;6.17E-10;36.611349;0.1;2.56E-06;36.611349
51.4999;6.29E-10;36.761658;0.1;2.58E-06;36.761658
51.9999;6.25E-10;36.912046;0.1000001;2.60E-06;36.912046
52.5;6.43E-10;37.070686;0.0999998;2.65E-06;37.070686
53;6.55E-10;37.221;0.1;2.68E-06;37.221
53.4999;6.34E-10;37.371379;0.1;2.72E-06;37.371379
53.9999;6.62E-10;37.52177;0.1000001;2.76E-06;37.52177
54.5;6.56E-10;37.672147;0.1000003;2.80E-06;37.672147
54.9999;6.66E-10;37.822356;0.1000001;2.82E-06;37.822356
55.5;6.61E-10;37.98627;0.1000001;2.86E-06;37.98627
55.9999;6.68E-10;38.136566;0.1;2.89E-06;38.136566
56.5;6.91E-10;38.287178;0.1;2.93E-06;38.287178
57;6.93E-10;38.475146;0.1000002;2.95E-06;38.475146
57.4999;6.89E-10;38.625524;0.1;2.99E-06;38.625524
57.9999;7.01E-10;38.77581;0.0999998;3.03E-06;38.77581
58.5;6.92E-10;38.959844;0.1;3.06E-06;38.959844
59;6.97E-10;39.110141;0.0999999;3.10E-06;39.110141
59.5;7.05E-10;39.26066;0.1000001;3.15E-06;39.26066
60;7.11E-10;39.410979;0.1;3.17E-06;39.410979
60;6.86E-10;39.548875;0.1000001;3.17E-06;39.548875
59.5;6.51E-10;39.699184;0.0999999;3.12E-06;39.699184
59;6.18E-10;39.849599;0.0999998;3.07E-06;39.849599
58.4999;6.02E-10;40.000039;0.1;3.03E-06;40.000039
57.9999;5.79E-10;40.150327;0.1000002;2.98E-06;40.150327
57.5;5.48E-10;40.300701;0.0999999;2.94E-06;40.300701
56.9999;5.39E-10;40.489035;0.1;2.89E-06;40.489035
56.4999;5.10E-10;40.639416;0.1;2.85E-06;40.639416
56;4.70E-10;40.789771;0.1000001;2.79E-06;40.789771
55.4999;4.26E-10;40.966867;0.0999998;2.75E-06;40.966867
55;4.01E-10;41.117202;0.0999999;2.72E-06;41.117202
54.5;3.74E-10;41.267664;0.0999997;2.67E-06;41.267664
53.9999;3.35E-10;41.417871;0.0999999;2.63E-06;41.417871
53.4999;3.33E-10;41.581676;0.1;2.60E-06;41.581676
52.9999;3.04E-10;41.732078;0.1000001;2.55E-06;41.732078
52.4999;2.91E-10;41.882353;0.1;2.51E-06;41.882353
52;2.81E-10;42.032638;0.0999999;2.46E-06;42.032638
51.5;2.74E-10;42.183043;0.1000002;2.42E-06;42.183043
50.9999;2.50E-10;42.333339;0.1;2.37E-06;42.333339
50.4999;2.53E-10;42.493177;0.0999999;2.33E-06;42.493177
50;2.53E-10;42.643534;0.0999999;2.29E-06;42.643534
49.5;2.33E-10;42.793863;0.0999998;2.24E-06;42.793863
48.9999;2.46E-10;42.971858;0.0999998;2.20E-06;42.971858
48.5;2.25E-10;43.122157;0.1000001;2.15E-06;43.122157
48;1.99E-10;43.272561;0.1000003;2.11E-06;43.272561
47.4999;1.94E-10;43.422746;0.0999997;2.07E-06;43.422746
46.9999;1.85E-10;43.586553;0.0999999;2.04E-06;43.586553
46.4999;1.90E-10;43.736903;0.0999999;2.00E-06;43.736903
46;1.62E-10;43.887111;0.1000003;1.97E-06;43.887111
45.5;1.72E-10;44.037324;0.1;1.93E-06;44.037324
44.9999;1.58E-10;44.187669;0.0999998;1.90E-06;44.187669
44.5;1.55E-10;44.337901;0.1000001;1.87E-06;44.337901
44;1.48E-10;44.502021;0.0999999;1.83E-06;44.502021
43.4999;1.44E-10;44.65228;0.1000002;1.78E-06;44.65228
43;1.30E-10;44.802687;0.0999999;1.75E-06;44.802687
42.5;1.45E-10;44.991222;0.1;1.70E-06;44.991222
42;1.23E-10;45.141432;0.1;1.66E-06;45.141432
41.5;1.18E-10;45.29167;0.1;1.65E-06;45.29167
40.9999;1.16E-10;45.476021;0.1000001;1.61E-06;45.476021
40.5;9.18E-11;45.626337;0.1;1.59E-06;45.626337
40;6.89E-11;45.776496;0.1000001;1.56E-06;45.776496
39.5;3.43E-11;45.926691;0.0999999;1.52E-06;45.926691
39;9.33E-12;46.092723;0.0999999;1.49E-06;46.092723
38.4999;-4.39E-11;46.242997;0.0999999;1.45E-06;46.242997
37.9999;-8.54E-11;46.393121;0.1;1.42E-06;46.393121
37.5;-1.32E-10;46.543215;0.1;1.39E-06;46.543215
36.9999;-2.00E-10;46.69335;0.0999999;1.36E-06;46.69335
36.4999;-2.54E-10;46.843391;0.0999999;1.33E-06;46.843391
35.9999;-2.47E-10;47.007693;0.0999999;1.30E-06;47.007693
35.5;-3.24E-10;47.157746;0.1000001;1.27E-06;47.157746
34.9999;-3.63E-10;47.307839;0.0999999;1.24E-06;47.307839
34.4999;-3.10E-10;47.487928;0.0999999;1.22E-06;47.487928
33.9999;-3.85E-10;47.638015;0.0999999;1.19E-06;47.638015
33.4999;-3.92E-10;47.788159;0.0999998;1.17E-06;47.788159
32.9999;-4.40E-10;47.938335;0.0999999;1.14E-06;47.938335
32.5;-4.61E-10;48.097447;0.1000001;1.12E-06;48.097447
31.9999;-4.52E-10;48.2477;0.1000001;1.09E-06;48.2477
31.4999;-4.35E-10;48.397803;0.0999998;1.07E-06;48.397803
31;-4.47E-10;48.547847;0.0999999;1.05E-06;48.547847
30.4999;-5.02E-10;48.698239;0.0999999;1.02E-06;48.698239
29.9999;-4.89E-10;48.84821;0.0999998;9.90E-07;48.84821
29.5;-4.54E-10;49.008388;0.1000001;9.70E-07;49.008388
29;-4.57E-10;49.158382;0.0999999;9.49E-07;49.158382
28.4999;-4.88E-10;49.308429;0.1;9.23E-07;49.308429
27.9999;-4.48E-10;49.487762;0.1;9.04E-07;49.487762
27.4999;-4.79E-10;49.640651;0.0999997;8.77E-07;49.640651
27;-4.86E-10;49.790654;0.0999998;8.52E-07;49.790654
26.5;-4.81E-10;49.940736;0.0999994;8.28E-07;49.940736
26;-4.69E-10;50.102288;0.1;8.09E-07;50.102288
25.5;-4.89E-10;50.252559;0.0999994;7.86E-07;50.252559
25;-4.61E-10;50.402667;0.1000001;7.67E-07;50.402667
24.4999;-4.62E-10;50.552772;0.100001;7.51E-07;50.552772
24;-5.03E-10;50.703111;0.1000002;7.32E-07;50.703111
23.5;-5.13E-10;50.85306;0.0999983;7.06E-07;50.85306
22.9999;-5.19E-10;51.017421;0.1;6.86E-07;51.017421
22.5;-5.46E-10;51.167403;0.0999997;6.69E-07;51.167403
21.9999;-5.72E-10;51.317399;0.1;6.48E-07;51.317399
21.5;-5.21E-10;51.49338;0.1000001;6.32E-07;51.49338
21;-5.44E-10;51.643273;0.1000012;6.14E-07;51.643273
20.5;-5.65E-10;51.793099;0.0999994;5.95E-07;51.793099
20;-5.93E-10;51.942915;0.1000014;5.72E-07;51.942915
19.5;-5.70E-10;52.107017;0.0999994;5.54E-07;52.107017
19;-5.99E-10;52.257138;0.0999995;5.39E-07;52.257138
18.4999;-6.18E-10;52.406896;0.0999997;5.26E-07;52.406896
18;-6.63E-10;52.556752;0.0999993;5.10E-07;52.556752
17.4999;-6.55E-10;52.708027;0.1000007;4.92E-07;52.708027
17;-7.29E-10;52.857902;0.0999992;4.74E-07;52.857902
16.4999;-7.00E-10;53.022444;0.0999996;4.56E-07;53.022444
15.9999;-9.26E-10;53.172339;0.1000001;4.39E-07;53.172339
15.4999;-9.92E-10;53.322277;0.1000002;4.24E-07;53.322277
15;-9.52E-10;53.49844;0.0999989;4.09E-07;53.49844
14.4999;-9.93E-10;53.648416;0.1000004;3.98E-07;53.648416
13.9999;-9.63E-10;53.798278;0.1000003;3.85E-07;53.798278
13.5;-1.07E-09;53.948118;0.0999998;3.68E-07;53.948118
13;-1.12E-09;54.111974;0.0999997;3.57E-07;54.111974
12.4999;-1.10E-09;54.261884;0.1000002;3.45E-07;54.261884
12;-1.12E-09;54.411733;0.0999997;3.32E-07;54.411733
11.4999;-1.14E-09;54.561541;0.0999999;3.23E-07;54.561541
10.9999;-1.13E-09;54.712973;0.1000003;3.13E-07;54.712973
10.5;-1.16E-09;54.862819;0.1000006;2.95E-07;54.862819
9.9999;-1.16E-09;55.027804;0.1000007;2.84E-07;55.027804
9.5;-1.20E-09;55.177688;0.0999997;2.74E-07;55.177688
9;-1.20E-09;55.327526;0.1000006;2.66E-07;55.327526
8.4999;-1.11E-09;55.499361;0.0999996;2.52E-07;55.499361
8;-1.11E-09;55.649309;0.0999995;2.40E-07;55.649309
7.5;-1.12E-09;55.799237;0.0999995;2.32E-07;55.799237
6.9999;-1.18E-09;55.94906;0.1000002;2.21E-07;55.94906
6.5;-1.13E-09;56.116889;0.1000006;2.14E-07;56.116889
6;-1.24E-09;56.266805;0.0999999;2.04E-07;56.266805
5.4999;-1.18E-09;56.416689;0.1000003;1.95E-07;56.416689
5;-1.14E-09;56.56654;0.1000004;1.88E-07;56.56654
4.5;-1.07E-09;56.718786;0.0999995;1.78E-07;56.718786
4;-1.05E-09;56.868611;0.0999992;1.71E-07;56.868611
3.5;-1.11E-09;57.032846;0.0999998;1.63E-07;57.032846
3;-1.08E-09;57.182706;0.0999999;1.55E-07;57.182706
2.5;-1.13E-09;57.332576;0.0999999;1.49E-07;57.332576
1.9999;-1.09E-09;57.525096;0.0999999;1.42E-07;57.525096
1.4999;-1.04E-09;57.674992;0.0999997;1.37E-07;57.674992
0.9999;-1.06E-09;57.824837;0.0999998;1.29E-07;57.824837
0.5;-1.07E-09;58.008101;0.0999997;1.22E-07;58.008101
-0.0001;-1.09E-09;58.157903;0.1;1.17E-07;58.157903
-0.5001;-1.17E-09;58.307847;0.0999998;1.12E-07;58.307847
-1.0001;-1.23E-09;58.457625;0.0999997;1.06E-07;58.457625
-1.5;-1.25E-09;58.623202;0.1000002;1.01E-07;58.623202
-2.0001;-1.11E-09;58.773217;0.0999997;9.52E-08;58.773217
-2.5;-1.21E-09;58.940261;0.0999954;8.92E-08;58.940261
-3;-1.08E-09;59.114923;0.1000045;8.51E-08;59.114923
-3.5;-1.04E-09;59.28757;0.0999996;7.95E-08;59.28757
-4;-1.06E-09;59.457674;0.1000019;7.49E-08;59.457674
-4.5001;-1.11E-09;59.646035;0.0999961;6.92E-08;59.646035
-5.0001;-1.07E-09;59.816236;0.1000054;6.63E-08;59.816236
-5.5;-1.08E-09;59.966162;0.0999978;6.30E-08;59.966162
-6.0001;-1.09E-09;60.1473;0.1000066;5.88E-08;60.1473
-6.5001;-1.15E-09;60.317483;0.0999992;5.45E-08;60.317483
