#scan	iMeasureCycle=1	iMux=0	time=0.143	N=482	LocalTime=31/10/2023 11:08:44
#VGate(V)	IGate(A)	time(s)	VDrain(V)	IDrain(A)	time(s)
-60	-2.45626E-09	0.299722	1	3.09879E-07	0.299722
-59.5	-2.10229E-09	0.450366	1	4.40233E-07	0.450366
-59.0001	-1.89644E-09	0.60072	1	6.13293E-07	0.60072
-58.5	-1.7182E-09	0.751222	1	8.34595E-07	0.751222
-58	-1.56151E-09	0.916942	1	1.10539E-06	0.916942
-57.5	-1.49596E-09	1.067328	1	1.42945E-06	1.067328
-57	-1.51181E-09	1.217702	1	1.79786E-06	1.217702
-56.5	-1.36612E-09	1.387088	1	2.22179E-06	1.387088
-56	-1.27984E-09	1.537481	1	2.67933E-06	1.537481
-55.5001	-1.23184E-09	1.687905	1	3.16016E-06	1.687905
-55	-1.18211E-09	1.861764	1	3.67871E-06	1.861764
-54.5001	-1.11241E-09	2.012082	1	4.21634E-06	2.012082
-54.0001	-1.05584E-09	2.162386	1	4.77795E-06	2.162386
-53.5001	-1.01614E-09	2.312772	1	5.34642E-06	2.312772
-53	-9.6924E-10	2.482137	1	5.91865E-06	2.482137
-52.5	-9.2972E-10	2.632403	1	6.51607E-06	2.632403
-52.0001	-9.002E-10	2.782608	1	7.10673E-06	2.782608
-51.5001	-8.5878E-10	2.932837	1	7.69303E-06	2.932837
-51.0001	-8.2299E-10	3.083175	1	8.28106E-06	3.083175
-50.5	-7.7914E-10	3.233445	1	8.86118E-06	3.233445
-50.0001	-7.2673E-10	3.391747	1	9.46571E-06	3.391747
-49.5001	-6.9061E-10	3.54201	1	1.005038E-05	3.54201
-49.0001	-6.6248E-10	3.695753	1	1.06258E-05	3.695753
-48.5	-6.5375E-10	3.866637	1	1.11621E-05	3.866637
-48.0001	-6.2549E-10	4.016921	1	1.17327E-05	4.016921
-47.5	-6.0169E-10	4.167181	1	1.23071E-05	4.167181
-47.0001	-6.0181E-10	4.31751	1	1.28703E-05	4.31751
-46.5	-5.6155E-10	4.487978	1	1.3413E-05	4.487978
-46	-5.4417E-10	4.638265	1	1.39488E-05	4.638265
-45.5	-5.1732E-10	4.788414	1	1.44651E-05	4.788414
-45.0001	-5.0721E-10	4.938547	0.999999	1.50302E-05	4.938547
-44.5001	-4.8533E-10	5.088764	1	1.55299E-05	5.088764
-44	-4.6839E-10	5.239017	1	1.60453E-05	5.239017
-43.5	-4.6897E-10	5.396784	1	1.65369E-05	5.396784
-43.0001	-4.605E-10	5.547011	1	1.69905E-05	5.547011
-42.5	-4.3687E-10	5.697277	1	1.75345E-05	5.697277
-42.0001	-4.381E-10	5.872451	0.999999	1.79781E-05	5.872451
-41.5	-3.789E-10	6.022742	1	1.84802E-05	6.022742
-41.0001	-3.8973E-10	6.173007	1	1.88639E-05	6.173007
-40.5001	-3.6932E-10	6.323535	1	1.93311E-05	6.323535
-40	-3.7295E-10	6.492831	0.999999	1.97978E-05	6.492831
-39.5	-3.5309E-10	6.643111	0.999999	2.03218E-05	6.643111
-39	-3.3716E-10	6.793201	0.999999	2.07268E-05	6.793201
-38.5001	-2.4994E-10	6.943299	0.999999	2.11609E-05	6.943299
-38.0001	-3.103E-10	7.093395	0.999999	2.15329E-05	7.093395
-37.5	-2.8399E-10	7.243482	0.999999	2.19512E-05	7.243482
-37.0001	-2.7505E-10	7.401054	1	2.2337E-05	7.401054
-36.5	-2.6662E-10	7.551255	0.999999	2.27039E-05	7.551255
-36	-2.7097E-10	7.701348	1	2.30982E-05	7.701348
-35.5001	-2.5278E-10	7.880479	1	2.34577E-05	7.880479
-35.0001	-2.331E-10	8.030592	0.999999	2.38206E-05	8.030592
-34.5001	-2.0732E-10	8.180982	0.999999	2.42663E-05	8.180982
-34.0001	-1.784E-10	8.331017	1	2.45819E-05	8.331017
-33.5001	-1.7484E-10	8.496607	1	2.49132E-05	8.496607
-33	-1.7034E-10	8.646706	1.000001	2.52531E-05	8.646706
-32.5	-1.4859E-10	8.796739	0.999999	2.54867E-05	8.796739
-32	-1.4269E-10	8.946794	1	2.57998E-05	8.946794
-31.5001	-1.2938E-10	9.096913	1	2.61903E-05	9.096913
-31	-1.1659E-10	9.24698	1	2.65336E-05	9.24698
-30.5001	-1.2614E-10	9.410542	0.999999	2.68726E-05	9.410542
-30	-1.1578E-10	9.560586	1	2.71656E-05	9.560586
-29.5	-4.609E-11	9.710578	0.999999	2.7495E-05	9.710578
-29.0001	-8.747E-11	9.885557	1	2.77514E-05	9.885557
-28.5	-7.279E-11	10.035638	0.999999	2.81927E-05	10.035638
-28	-5.084E-11	10.185753	1	2.85547E-05	10.185753
-27.5	-4.807E-11	10.335784	1	2.8782E-05	10.335784
-27.0001	-3.31E-11	10.50153	1	2.90664E-05	10.50153
-26.5001	-4.224E-11	10.651624	1	2.9377E-05	10.651624
-26.0001	-2.858E-11	10.801621	1	2.96767E-05	10.801621
-25.5001	-1.503E-11	10.951658	1	3.00044E-05	10.951658
-25	1.956E-11	11.101717	1	3.02858E-05	11.101717
-24.5001	2.526E-11	11.251723	0.999999	3.04953E-05	11.251723
-24.0001	3.66E-11	11.415442	0.999999	3.08265E-05	11.415442
-23.5001	4.68E-11	11.565479	0.999999	3.11046E-05	11.565479
-23.0001	4.286E-11	11.7155	0.999999	3.14584E-05	11.7155
-22.5	5.502E-11	11.886307	1	3.17132E-05	11.886307
-22	6.727E-11	12.036309	0.999999	3.19053E-05	12.036309
-21.5	8.152E-11	12.186346	0.999999	3.21331E-05	12.186346
-21	1.0755E-10	12.336401	1	3.24153E-05	12.336401
-20.5001	1.01E-10	12.506229	0.999999	3.26494E-05	12.506229
-20.0001	1.1824E-10	12.656082	0.999999	3.29685E-05	12.656082
-19.5	1.1911E-10	12.805966	0.999999	3.32222E-05	12.805966
-19	1.0954E-10	12.955849	1	3.34709E-05	12.955849
-18.5001	1.704E-10	13.107149	1	3.37769E-05	13.107149
-18.0001	1.8417E-10	13.257009	1	3.40787E-05	13.257009
-17.5	2.0525E-10	13.421221	0.999999	3.42975E-05	13.421221
-17.0001	1.4454E-10	13.571137	0.999999	3.45792E-05	13.571137
-16.5001	1.6071E-10	13.72108	1	3.48199E-05	13.72108
-16	1.5732E-10	13.893231	0.999999	3.50564E-05	13.893231
-15.5001	1.8556E-10	14.043198	1	3.54511E-05	14.043198
-15.0001	1.9726E-10	14.192973	1	3.55945E-05	14.192973
-14.5001	2.017E-10	14.342849	1	3.56952E-05	14.342849
-14	2.0923E-10	14.51224	1	3.60389E-05	14.51224
-13.5001	2.7121E-10	14.662088	0.999999	3.63467E-05	14.662088
-13	2.7456E-10	14.811882	1	3.65687E-05	14.811882
-12.5001	2.5885E-10	14.961781	1	3.6668E-05	14.961781
-12	2.5524E-10	15.112057	0.999998	3.69137E-05	15.112057
-11.5	2.575E-10	15.261955	1	3.71928E-05	15.261955
-11	2.6157E-10	15.421747	1	3.74603E-05	15.421747
-10.5001	2.6103E-10	15.571621	0.999999	3.76466E-05	15.571621
-10.0001	2.7549E-10	15.721489	0.999999	3.78652E-05	15.721489
-9.5001	2.5316E-10	15.900522	1	3.80461E-05	15.900522
-9.0001	2.6355E-10	16.050418	1.000001	3.82865E-05	16.050418
-8.5001	2.7782E-10	16.200441	0.999999	3.83997E-05	16.200441
-8.0001	2.9801E-10	16.350339	1.000001	3.84821E-05	16.350339
-7.5001	5.7593E-10	16.517069	1.000001	3.86443E-05	16.517069
-7	3.0795E-10	16.666906	1	3.87529E-05	16.666906
-6.5001	2.8794E-10	16.816788	0.999999	3.90646E-05	16.816788
-6	3.2022E-10	16.966641	1.000001	3.9275E-05	16.966641
-5.5	3.3543E-10	17.117025	1	3.96454E-05	17.117025
-5	3.5786E-10	17.266874	1	3.96993E-05	17.266874
-4.5001	4.0962E-10	17.431018	1.000001	3.98E-05	17.431018
-4.0001	4.7375E-10	17.580973	1	4.01509E-05	17.580973
-3.5	3.5026E-10	17.730907	1	4.02878E-05	17.730907
-3.0001	3.9399E-10	17.902127	1	4.04607E-05	17.902127
-2.5	3.834E-10	18.052002	1	4.06263E-05	18.052002
-2.0001	3.7846E-10	18.201825	1	4.0732E-05	18.201825
-1.5001	4.0037E-10	18.35161	1	4.09449E-05	18.35161
-1	4.1103E-10	18.522	1	4.11763E-05	18.522
-0.5	4.1971E-10	18.671844	1	4.12422E-05	18.671844
0	4.1422E-10	18.821665	1	4.14093E-05	18.821665
0.5	4.0775E-10	18.97152	0.999999	4.1634E-05	18.97152
1	4.09E-10	19.121947	1	4.17252E-05	19.121947
1.4999	4.07E-10	19.271825	1	4.18675E-05	19.271825
1.9999	4.2601E-10	19.43167	1	4.21089E-05	19.43167
2.5	4.3244E-10	19.581583	1	4.21741E-05	19.581583
3	4.2252E-10	19.731388	1	4.2322E-05	19.731388
3.4999	4.0871E-10	19.905927	1.000001	4.25148E-05	19.905927
4	4.2122E-10	20.055805	1	4.2603E-05	20.055805
4.4999	4.4782E-10	20.205794	1	4.28859E-05	20.205794
4.9999	4.5646E-10	20.355877	1	4.29755E-05	20.355877
5.4999	4.4341E-10	20.52788	0.999999	4.33022E-05	20.52788
5.9999	4.3267E-10	20.677718	1	4.35084E-05	20.677718
6.4999	4.6182E-10	20.827569	1	4.36396E-05	20.827569
7	5.1068E-10	20.977407	0.999999	4.3825E-05	20.977407
7.5	4.9023E-10	21.127286	1	4.40374E-05	21.127286
8	4.9763E-10	21.277101	0.999999	4.40982E-05	21.277101
8.4999	4.903E-10	21.44136	0.999999	4.43456E-05	21.44136
9	4.9985E-10	21.591237	1	4.44988E-05	21.591237
9.4999	4.9725E-10	21.741149	0.999999	4.46117E-05	21.741149
9.9999	4.865E-10	21.912289	1	4.47555E-05	21.912289
10.5	4.9608E-10	22.06217	0.999999	4.50631E-05	22.06217
10.9999	5.1578E-10	22.212263	1	4.51343E-05	22.212263
11.5	5.178E-10	22.36211	1	4.50328E-05	22.36211
11.9999	5.1136E-10	22.531783	0.999999	4.52082E-05	22.531783
12.5001	5.1938E-10	22.681607	1	4.55229E-05	22.681607
13	5.7585E-10	22.831478	0.999999	4.5763E-05	22.831478
13.4999	5.7158E-10	22.981285	0.999999	4.58498E-05	22.981285
14	5.8662E-10	23.13177	1.000001	4.59756E-05	23.13177
14.5	5.986E-10	23.281632	1.000001	4.61725E-05	23.281632
15	5.8371E-10	23.446882	0.999999	4.6418E-05	23.446882
15.4999	6.0298E-10	23.596822	0.999998	4.66114E-05	23.596822
15.9999	6.2294E-10	23.746654	1	4.67172E-05	23.746654
16.4999	6.1751E-10	23.921896	0.999999	4.69807E-05	23.921896
17	6.1734E-10	24.071761	0.999999	4.69991E-05	24.071761
17.5	6.3834E-10	24.221774	0.999999	4.70885E-05	24.221774
18	6.148E-10	24.371564	0.999999	4.73673E-05	24.371564
18.4999	6.1043E-10	24.536961	1	4.74386E-05	24.536961
18.9999	6.2801E-10	24.686796	1	4.77034E-05	24.686796
19.5	6.0494E-10	24.836737	1	4.76635E-05	24.836737
20	6.149E-10	24.986718	0.999999	4.79321E-05	24.986718
20.5	6.6972E-10	25.136682	0.999999	4.80331E-05	25.136682
21	6.6011E-10	25.286555	1	4.84453E-05	25.286555
21.5	6.3103E-10	25.447116	1	4.85436E-05	25.447116
22	6.7408E-10	25.597114	0.999999	4.86994E-05	25.597114
22.5	7.0632E-10	25.747076	0.999999	4.8851E-05	25.747076
23	6.7793E-10	25.926904	1.000001	4.90262E-05	25.926904
23.4999	6.9066E-10	26.07694	0.999998	4.94025E-05	26.07694
24	7.9938E-10	26.227095	1	4.94321E-05	26.227095
24.4999	7.404E-10	26.377093	0.999999	4.97434E-05	26.377093
25	7.2842E-10	26.541891	1	4.97296E-05	26.541891
25.5	7.4606E-10	26.691987	0.999999	4.97497E-05	26.691987
26	7.4946E-10	26.84198	0.999999	4.98343E-05	26.84198
26.5	7.3369E-10	26.991927	1	5.00647E-05	26.991927
26.9999	7.4222E-10	27.142054	1.000001	5.01218E-05	27.142054
27.5	7.6684E-10	27.292103	1	5.03118E-05	27.292103
27.9999	7.8762E-10	27.456302	0.999999	5.02429E-05	27.456302
28.5	7.8442E-10	27.606412	1	5.05791E-05	27.606412
28.9999	7.5203E-10	27.756542	1.000001	5.05998E-05	27.756542
29.5	7.5222E-10	27.932152	1	5.08881E-05	27.932152
30	7.5082E-10	28.08217	1	5.11395E-05	28.08217
30.5	7.8943E-10	28.232217	1.000001	5.11012E-05	28.232217
31	8.2578E-10	28.382211	0.999999	5.08901E-05	28.382211
31.5	8.2121E-10	28.546777	1	5.09267E-05	28.546777
32	8.1189E-10	28.696888	0.999999	5.11135E-05	28.696888
32.4999	7.8943E-10	28.846985	0.999998	5.11338E-05	28.846985
33	8.1357E-10	28.997196	0.999998	5.14221E-05	28.997196
33.5	8.3176E-10	29.147299	0.999999	5.1628E-05	29.147299
33.9999	8.3781E-10	29.297394	0.999999	5.17158E-05	29.297394
34.4999	8.4923E-10	29.461341	1	5.1829E-05	29.461341
34.9999	8.4125E-10	29.611489	0.999997	5.16563E-05	29.611489
35.4999	8.3639E-10	29.761574	1	5.18417E-05	29.761574
36	8.2004E-10	29.9371	0.999996	5.22685E-05	29.9371
36.5	8.3924E-10	30.087237	1.000001	5.24787E-05	30.087237
36.9999	8.5576E-10	30.237419	0.999999	5.25013E-05	30.237419
37.4999	8.6184E-10	30.387514	0.999998	5.2625E-05	30.387514
38	8.6578E-10	30.551757	0.999999	5.2856E-05	30.551757
38.4999	8.7805E-10	30.702068	1	5.30064E-05	30.702068
39	8.943E-10	30.852258	1.000001	5.30339E-05	30.852258
39.4999	9.087E-10	31.002387	1.000001	5.31422E-05	31.002387
40	9.15E-10	31.152667	1.000001	5.32309E-05	31.152667
40.4999	9.3636E-10	31.302905	1	5.32736E-05	31.302905
40.9999	9.3316E-10	31.466734	1	5.36104E-05	31.466734
41.4999	9.5068E-10	31.616988	1	5.39716E-05	31.616988
41.9999	9.1732E-10	31.767226	1	5.42363E-05	31.767226
42.4999	9.1857E-10	31.946662	0.999999	5.41777E-05	31.946662
42.9999	9.3111E-10	32.096902	1	5.42689E-05	32.096902
43.5	9.3219E-10	32.247171	1	5.44753E-05	32.247171
44	9.4359E-10	32.397391	0.999999	5.42265E-05	32.397391
44.5	9.5943E-10	32.557821	1.000001	5.4518E-05	32.557821
45	9.6308E-10	32.708132	0.999999	5.46359E-05	32.708132
45.4999	9.6601E-10	32.858294	0.999999	5.4741E-05	32.858294
46	9.9002E-10	33.008404	1	5.49199E-05	33.008404
46.5	9.9774E-10	33.158582	0.999999	5.53037E-05	33.158582
47	1.0072E-09	33.308855	0.999999	5.53791E-05	33.308855
47.4999	1.00934E-09	33.468159	0.999998	5.54084E-05	33.468159
48	1.02358E-09	33.618532	1	5.55459E-05	33.618532
48.4999	1.0444E-09	33.768737	0.999999	5.56736E-05	33.768737
49	1.05006E-09	33.94256	0.999998	5.58359E-05	33.94256
49.5	1.04644E-09	34.092803	0.999999	5.56981E-05	34.092803
49.9999	1.058E-09	34.243083	1.000001	5.56296E-05	34.243083
50.4999	1.0485E-09	34.393589	0.999999	5.61878E-05	34.393589
51	1.03006E-09	34.56176	0.999999	5.58428E-05	34.56176
51.5	1.04317E-09	34.712004	0.999999	5.60861E-05	34.712004
52	1.06246E-09	34.862233	1	5.60457E-05	34.862233
52.4999	1.06662E-09	35.012476	0.999999	5.62865E-05	35.012476
53	1.06621E-09	35.162822	1	5.62714E-05	35.162822
53.4999	1.07901E-09	35.313164	0.999999	5.65297E-05	35.313164
54	1.06728E-09	35.478215	0.999999	5.66311E-05	35.478215
54.5	1.2297E-09	35.628538	1	5.66483E-05	35.628538
54.9999	1.07358E-09	35.7788	0.999999	5.67953E-05	35.7788
55.4999	1.06098E-09	35.962202	0.999999	5.6952E-05	35.962202
56	1.08713E-09	36.112592	1	5.69717E-05	36.112592
56.4999	1.09804E-09	36.262962	0.999999	5.70964E-05	36.262962
56.9999	1.10982E-09	36.447532	0.999999	5.70816E-05	36.447532
57.5	1.11983E-09	36.597993	0.999998	5.74877E-05	36.597993
58	1.12597E-09	36.748265	0.999999	5.74417E-05	36.748265
58.5	1.11472E-09	36.898645	0.999999	5.75255E-05	36.898645
59	1.1181E-09	37.068124	0.999999	5.75292E-05	37.068124
59.5	1.12299E-09	37.218374	1	5.76178E-05	37.218374
60	1.14039E-09	37.368752	1	5.76627E-05	37.368752
60	1.1007E-09	37.491138	1	5.76896E-05	37.491138
59.5	1.01565E-09	37.641445	1	5.77454E-05	37.641445
58.9999	9.6273E-10	37.7918	1.000001	5.75133E-05	37.7918
58.4999	1.01213E-09	37.980394	1	5.73109E-05	37.980394
58	9.1766E-10	38.130739	0.999999	5.73702E-05	38.130739
57.5	9.0623E-10	38.281098	0.999999	5.73029E-05	38.281098
57	9.256E-10	38.458015	1	5.73015E-05	38.458015
56.4999	8.7304E-10	38.608498	0.999999	5.68026E-05	38.608498
55.9999	8.3327E-10	38.758792	0.999999	5.66627E-05	38.758792
55.4999	7.9437E-10	38.909042	0.999999	5.65667E-05	38.909042
55	7.4843E-10	39.072822	1.000001	5.66938E-05	39.072822
54.5	7.2773E-10	39.223049	0.999999	5.64902E-05	39.223049
53.9999	6.9669E-10	39.373391	1	5.63899E-05	39.373391
53.5	6.8462E-10	39.523723	0.999999	5.62795E-05	39.523723
52.9999	6.6222E-10	39.674131	1	5.62688E-05	39.674131
52.4999	6.2889E-10	39.824369	0.999999	5.60474E-05	39.824369
51.9999	5.9496E-10	39.988517	1	5.59199E-05	39.988517
51.4999	5.7042E-10	40.138757	0.999999	5.56716E-05	40.138757
51	5.5646E-10	40.289067	1	5.57252E-05	40.289067
50.4999	5.455E-10	40.476998	1	5.55711E-05	40.476998
49.9999	5.2709E-10	40.627336	0.999999	5.53971E-05	40.627336
49.5	4.9411E-10	40.777735	1	5.53855E-05	40.777735
49	4.9966E-10	40.957993	0.999998	5.54682E-05	40.957993
48.4999	4.8423E-10	41.108429	0.999999	5.51246E-05	41.108429
48	4.5812E-10	41.258701	1	5.4971E-05	41.258701
47.4999	4.3338E-10	41.408946	0.999999	5.47635E-05	41.408946
46.9999	4.2415E-10	41.578885	1	5.45618E-05	41.578885
46.4999	4.0924E-10	41.729216	1	5.448E-05	41.729216
45.9999	3.8746E-10	41.879365	1	5.44813E-05	41.879365
45.5	3.7992E-10	42.029544	1	5.42653E-05	42.029544
44.9999	3.6861E-10	42.179838	0.999998	5.4336E-05	42.179838
44.5	3.4144E-10	42.330105	1	5.417E-05	42.330105
43.9999	3.434E-10	42.489523	1	5.38353E-05	42.489523
43.4999	3.1505E-10	42.639704	1	5.37881E-05	42.639704
42.9999	2.9763E-10	42.78986	1	5.35382E-05	42.78986
42.5	2.8967E-10	42.964768	0.999999	5.34202E-05	42.964768
42	2.6625E-10	43.114842	1	5.35149E-05	43.114842
41.5	2.4401E-10	43.265038	1	5.32364E-05	43.265038
40.9999	2.2656E-10	43.415433	0.999999	5.30949E-05	43.415433
40.4999	2.1775E-10	43.583642	0.999998	5.30352E-05	43.583642
40	2.0584E-10	43.733887	1	5.30471E-05	43.733887
39.4999	1.5427E-10	43.884021	1	5.28557E-05	43.884021
39	8.595E-11	44.034208	1	5.28529E-05	44.034208
38.5	1.2362E-10	44.184351	0.999999	5.26736E-05	44.184351
38	1.3823E-10	44.334476	1	5.24756E-05	44.334476
37.5	1.3815E-10	44.494602	1	5.24406E-05	44.494602
36.9999	1.3955E-10	44.64494	1	5.22672E-05	44.64494
36.5	1.3205E-10	44.795067	1.000001	5.2213E-05	44.795067
35.9999	1.3525E-10	44.973844	0.999999	5.20187E-05	44.973844
35.5	1.1554E-10	45.123902	0.999999	5.15574E-05	45.123902
35	9.717E-11	45.273962	1.000001	5.14259E-05	45.273962
34.4999	7.979E-11	45.423975	1	5.15145E-05	45.423975
33.9999	8.449E-11	45.588478	0.999999	5.11516E-05	45.588478
33.5	5.664E-11	45.738593	0.999999	5.11432E-05	45.738593
33	5.854E-11	45.888689	1	5.09245E-05	45.888689
32.4999	4.82E-11	46.038805	0.999999	5.04603E-05	46.038805
32	5.189E-11	46.189246	0.999998	5.05717E-05	46.189246
31.4999	4.091E-11	46.339273	1	5.06242E-05	46.339273
30.9999	4.208E-11	46.499536	1	5.02599E-05	46.499536
30.5	1.882E-11	46.649598	1	5.01822E-05	46.649598
30	1.95E-12	46.799625	1	5.00166E-05	46.799625
29.4999	3.181E-11	46.974963	1	4.97732E-05	46.974963
29	1.365E-11	47.125035	1	4.9674E-05	47.125035
28.5	7.42E-12	47.275071	1	4.96746E-05	47.275071
28	-6.434E-11	47.425325	1	4.94791E-05	47.425325
27.5	-5.533E-11	47.593282	0.999999	4.93754E-05	47.593282
26.9999	-5.415E-11	47.743407	0.999999	4.9346E-05	47.743407
26.5	-7.778E-11	47.893496	0.999999	4.9071E-05	47.893496
25.9999	-7.295E-11	48.043522	1	4.89116E-05	48.043522
25.4999	-7.401E-11	48.194136	1	4.89318E-05	48.194136
24.9999	-9.338E-11	48.34408	1	4.86086E-05	48.34408
24.5	-1.455E-10	48.509008	1	4.84273E-05	48.509008
24	-9.0305E-10	48.659181	1	4.83163E-05	48.659181
23.4999	-2.7656E-10	48.80919	1	4.78807E-05	48.80919
23	-1.4413E-10	48.989242	0.999999	4.78259E-05	48.989242
22.4999	-2.0452E-10	49.139283	1	4.75009E-05	49.139283
22	-1.3404E-10	49.289372	1	4.75454E-05	49.289372
21.5	-1.4451E-10	49.439336	1	4.772E-05	49.439336
21	-1.4741E-10	49.597997	0.999999	4.7409E-05	49.597997
20.5	-1.9791E-10	49.747867	1	4.7299E-05	49.747867
20	-2.0783E-10	49.897701	1	4.71639E-05	49.897701
19.4999	-2.2195E-10	50.047585	1	4.70095E-05	50.047585
18.9999	-2.2039E-10	50.199052	1	4.68199E-05	50.199052
18.4999	-2.3469E-10	50.348981	1	4.64507E-05	50.348981
18	-2.2126E-10	50.509156	1	4.63637E-05	50.509156
17.4999	-2.5603E-10	50.659108	1.000001	4.62705E-05	50.659108
16.9999	-3.0376E-10	50.809128	0.999999	4.61335E-05	50.809128
16.4999	-2.5211E-10	50.98888	0.999999	4.59171E-05	50.98888
15.9999	-2.2498E-10	51.138769	1	4.58388E-05	51.138769
15.5	-2.3849E-10	51.288589	1	4.56974E-05	51.288589
14.9999	-2.5497E-10	51.438392	1.000001	4.56558E-05	51.438392
14.4999	-1.8778E-10	51.602877	1	4.53777E-05	51.602877
13.9999	-2.3585E-10	51.752719	1	4.52699E-05	51.752719
13.4999	-2.2094E-10	51.902699	1	4.51762E-05	51.902699
12.9999	-2.1431E-10	52.052534	0.999999	4.50146E-05	52.052534
12.5001	-2.1784E-10	52.204772	1	4.47479E-05	52.204772
12	-2.3762E-10	52.354702	1	4.46262E-05	52.354702
11.5	-2.712E-10	52.514125	0.999999	4.42405E-05	52.514125
10.9999	-2.4781E-10	52.664092	1	4.41145E-05	52.664092
10.4999	-2.7539E-10	52.813986	1	4.38244E-05	52.813986
9.9999	-2.5081E-10	52.989506	0.999999	4.37879E-05	52.989506
9.4999	-2.7681E-10	53.139391	1	4.35053E-05	53.139391
8.9999	-3.103E-10	53.28928	0.999999	4.33423E-05	53.28928
8.4999	-3.3004E-10	53.43934	1	4.31016E-05	53.43934
8	-3.2072E-10	53.607826	1	4.31091E-05	53.607826
7.5	-3.1036E-10	53.75767	1	4.29142E-05	53.75767
6.9999	-3.2605E-10	53.907557	0.999999	4.28137E-05	53.907557
6.4999	-3.3958E-10	54.057434	1	4.26763E-05	54.057434
6	-3.2325E-10	54.208756	1	4.24369E-05	54.208756
5.5	-3.6073E-10	54.358812	1	4.21887E-05	54.358812
4.9999	-3.1723E-10	54.523632	1	4.20872E-05	54.523632
4.5	-3.3477E-10	54.673543	1	4.19554E-05	54.673543
4	-3.0062E-10	54.823342	0.999999	4.17882E-05	54.823342
3.5	-3.0134E-10	55.008214	1	4.15796E-05	55.008214
2.9999	-3.3028E-10	55.158203	1	4.14496E-05	55.158203
2.4999	-3.4293E-10	55.308181	1	4.112E-05	55.308181
1.9999	-3.3887E-10	55.458029	0.999999	4.08441E-05	55.458029
1.4999	-3.6872E-10	55.612754	0.999999	4.07899E-05	55.612754
1	-3.806E-10	55.762611	1	4.05229E-05	55.762611
0.4999	-3.7013E-10	55.912505	1	4.0212E-05	55.912505
-0.0001	-3.7848E-10	56.062327	0.999999	4.02985E-05	56.062327
-0.5001	-3.9698E-10	56.212244	1	4.00468E-05	56.212244
-1.0001	-4.0311E-10	56.3622	0.999999	3.98622E-05	56.3622
-1.5	-4.0423E-10	56.528458	1	3.96661E-05	56.528458
-2.0001	-4.1671E-10	56.678312	1	3.9531E-05	56.678312
-2.5001	-4.26E-10	56.828107	0.999999	3.93075E-05	56.828107
-3.0001	-4.3428E-10	57.016105	1	3.90341E-05	57.016105
-3.5	-4.4825E-10	57.165995	1	3.88017E-05	57.165995
