#scan;iMeasureCycle=1;iMux=0;time=0.131;N=142;LocalTime=21/12/2023 14:16:29;;;;;
#VGate(V);IGate(A);time(s);VDrain(V);IDrain(A);time(s);;;VGate (V);|IDrain|, |IGate| (A);|IGate| (A)
19.99999;1.94E-08;0.279314;-0.500001;-1.02E-08;0.279314;;;19.99999;1.01766E-08;1.93845E-08
19.49999;1.67E-08;0.423467;-0.5;-9.22E-09;0.423467;;;19.49999;9.2157E-09;1.66762E-08
18.99999;1.50E-08;0.582177;-0.500001;-8.61E-09;0.582177;;;18.99999;8.60949E-09;1.5008E-08
18.5;1.36E-08;0.732023;-0.500001;-8.14E-09;0.732023;;;18.5;8.13549E-09;1.36445E-08
18;1.23E-08;0.881804;-0.500001;-7.69E-09;0.881804;;;18;7.69213E-09;1.23138E-08
17.5;1.11E-08;1.031554;-0.5;-7.38E-09;1.031554;;;17.5;7.3809E-09;1.1102E-08
17;1.02E-08;1.181198;-0.5;-7.37E-09;1.181198;;;17;7.36741E-09;1.0211E-08
16.5;1.14E-08;1.406744;-0.499999;-8.48E-09;1.406744;;;16.5;8.48256E-09;1.14383E-08
16;1.07E-08;1.556473;-0.499999;-9.01E-09;1.556473;;;16;9.01108E-09;1.07074E-08
15.5;1.11E-08;1.700277;-0.5;-1.02E-08;1.700277;;;15.5;1.02074E-08;1.10693E-08
14.99999;1.19E-08;1.859894;-0.5;-1.17E-08;1.859894;;;14.99999;1.17398E-08;1.1874E-08
14.49999;1.19E-08;2.003796;-0.5;-1.34E-08;2.003796;;;14.49999;1.34281E-08;1.18537E-08
13.99999;1.19E-08;2.147641;-0.500001;-1.57E-08;2.147641;;;13.99999;1.57061E-08;1.18768E-08
13.49999;1.18E-08;2.291529;-0.500001;-1.88E-08;2.291529;;;13.49999;1.88278E-08;1.17766E-08
12.99999;1.16E-08;2.454172;-0.500001;-2.33E-08;2.454172;;;12.99999;2.33049E-08;1.16261E-08
12.49999;1.14E-08;2.598044;-0.500001;-2.98E-08;2.598044;;;12.49999;2.97995E-08;1.13723E-08
11.99999;1.11E-08;2.741922;-0.500001;-3.93E-08;2.741922;;;11.99999;3.92674E-08;1.11448E-08
11.49999;1.09E-08;2.885765;-0.500001;-5.26E-08;2.885765;;;11.49999;5.25725E-08;1.08638E-08
10.99999;1.06E-08;3.029598;-0.500002;-7.13E-08;3.029598;;;10.99999;7.12773E-08;1.05504E-08
10.49999;1.02E-08;3.1734;-0.500002;-9.65E-08;3.1734;;;10.49999;9.64772E-08;1.02246E-08
9.99999;9.91E-09;3.352078;-0.5;-1.29E-07;3.352078;;;9.99999;1.29269E-07;9.9093E-09
9.49999;9.50E-09;3.495926;-0.5;-1.72E-07;3.495926;;;9.49999;1.71817E-07;9.497E-09
8.99999;9.06E-09;3.639761;-0.5;-2.23E-07;3.639761;;;8.99999;2.23385E-07;9.0571E-09
8.49999;8.65E-09;3.789544;-0.5;-2.85E-07;3.789544;;;8.49999;2.84673E-07;8.64691E-09
7.99999;8.19E-09;3.963781;-0.5;-3.57E-07;3.963781;;;7.99999;3.56634E-07;8.18586E-09
7.5;7.67E-09;4.113659;-0.5;-4.40E-07;4.113659;;;7.5;4.39691E-07;7.67002E-09
7;7.13E-09;4.263852;-0.5;-5.33E-07;4.263852;;;7;5.32967E-07;7.13021E-09
6.5;6.57E-09;4.413715;-0.5;-6.36E-07;4.413715;;;6.5;6.36149E-07;6.56511E-09
5.99999;5.96E-09;4.563842;-0.5;-7.49E-07;4.563842;;;5.99999;7.4888E-07;5.96033E-09
5.49999;5.35E-09;4.713683;-0.5;-8.70E-07;4.713683;;;5.49999;8.69934E-07;5.34598E-09
5;4.71E-09;4.873582;-0.5;-9.97E-07;4.873582;;;5;9.97183E-07;4.71198E-09
4.5;4.01E-09;5.026856;-0.5;-1.13E-06;5.026856;;;4.5;1.12996E-06;4.0087E-09
3.99999;3.29E-09;5.176627;-0.5;-1.27E-06;5.176627;;;3.99999;1.26662E-06;3.28719E-09
3.49999;2.58E-09;5.3492;-0.5;-1.41E-06;5.3492;;;3.49999;1.40502E-06;2.58324E-09
2.99999;1.76E-09;5.499166;-0.5;-1.54E-06;5.499166;;;2.99999;1.54468E-06;1.75676E-09
2.5;9.39E-10;5.649023;-0.5;-1.68E-06;5.649023;;;2.5;1.68267E-06;9.388E-10
1.99999;1.12E-10;5.798856;-0.5;-1.82E-06;5.798856;;;1.99999;1.81646E-06;1.1247E-10
1.5;-7.16E-10;5.969893;-0.5;-1.94E-06;5.969893;;;1.5;1.94294E-06;7.157E-10
0.99999;-1.59E-09;6.119634;-0.5;-2.06E-06;6.119634;;;0.99999;2.05924E-06;1.5908E-09
0.49999;-2.48E-09;6.26975;-0.5;-2.16E-06;6.26975;;;0.49999;2.16274E-06;2.47517E-09
0;-3.38E-09;6.419549;-0.5;-2.25E-06;6.419549;;;0;2.2506E-06;3.37913E-09
-0.5;-4.29E-09;6.569441;-0.5;-2.32E-06;6.569441;;;-0.5;2.32218E-06;4.28868E-09
-1.00001;-5.22E-09;6.719253;-0.5;-2.38E-06;6.719253;;;-1.00001;2.38019E-06;5.21605E-09
-1.5;-6.11E-09;6.878669;-0.5;-2.43E-06;6.878669;;;-1.5;2.42875E-06;6.11378E-09
-2.00001;-7.10E-09;7.028543;-0.5;-2.47E-06;7.028543;;;-2.00001;2.47051E-06;7.09887E-09
-2.5;-8.05E-09;7.178326;-0.5;-2.51E-06;7.178326;;;-2.5;2.50618E-06;8.05492E-09
-3.00001;-8.94E-09;7.352316;-0.5;-2.54E-06;7.352316;;;-3.00001;2.5362E-06;8.9379E-09
-3.5;-9.98E-09;7.496219;-0.5;-2.56E-06;7.496219;;;-3.5;2.56244E-06;9.9815E-09
-4.00001;-1.10E-08;7.640099;-0.5;-2.58E-06;7.640099;;;-4.00001;2.5847E-06;1.09827E-08
-4.5;-1.20E-08;7.783939;-0.5;-2.60E-06;7.783939;;;-4.5;2.60353E-06;1.19806E-08
-5;-1.30E-08;7.927778;-0.5;-2.62E-06;7.927778;;;-5;2.61885E-06;1.29798E-08
-5.50001;-1.40E-08;8.071712;-0.5;-2.63E-06;8.071712;;;-5.50001;2.63107E-06;1.39832E-08
-6;-1.50E-08;8.215575;-0.5;-2.64E-06;8.215575;;;-6;2.6404E-06;1.49937E-08
-6.50001;-1.59E-08;8.376337;-0.5;-2.65E-06;8.376337;;;-6.50001;2.64732E-06;1.59019E-08
-7;-1.70E-08;8.520235;-0.5;-2.65E-06;8.520235;;;-7;2.65243E-06;1.6979E-08
-7.5;-1.80E-08;8.664125;-0.5;-2.66E-06;8.664125;;;-7.5;2.65544E-06;1.80039E-08
-8;-1.90E-08;8.807995;-0.5;-2.66E-06;8.807995;;;-8;2.65539E-06;1.89937E-08
-8.5;-2.00E-08;8.970389;-0.5;-2.65E-06;8.970389;;;-8.5;2.65397E-06;2.00011E-08
-9;-2.10E-08;9.114223;-0.5;-2.65E-06;9.114223;;;-9;2.65125E-06;2.10323E-08
-9.5;-2.20E-08;9.258087;-0.5;-2.65E-06;9.258087;;;-9.5;2.64616E-06;2.2044E-08
-10;-2.31E-08;9.401995;-0.5;-2.64E-06;9.401995;;;-10;2.64015E-06;2.30845E-08
-10.5;-2.41E-08;9.545859;-0.5;-2.63E-06;9.545859;;;-10.5;2.63299E-06;2.41307E-08
-11;-2.52E-08;9.689693;-0.5;-2.62E-06;9.689693;;;-11;2.62429E-06;2.51617E-08
-11.50001;-2.60E-08;9.858207;-0.5;-2.61E-06;9.858207;;;-11.50001;2.6138E-06;2.60376E-08
-12;-2.72E-08;10.002133;-0.5;-2.60E-06;10.002133;;;-12;2.60316E-06;2.71558E-08
-12.5;-2.82E-08;10.145936;-0.5;-2.59E-06;10.145936;;;-12.5;2.59083E-06;2.8224E-08
-13;-2.92E-08;10.289857;-0.5;-2.58E-06;10.289857;;;-13;2.57809E-06;2.92431E-08
-13.5;-3.03E-08;10.433717;-0.5;-2.56E-06;10.433717;;;-13.5;2.56419E-06;3.02697E-08
-14;-3.13E-08;10.577657;-0.5;-2.55E-06;10.577657;;;-14;2.54989E-06;3.13317E-08
-14.5;-3.24E-08;10.721557;-0.5;-2.53E-06;10.721557;;;-14.5;2.53461E-06;3.23859E-08
-15;-3.33E-08;10.882402;-0.5;-2.52E-06;10.882402;;;-15;2.51775E-06;3.3344E-08
-15;-3.29E-08;11.005958;-0.5;-2.52E-06;11.005958;;;-15;2.51675E-06;3.28709E-08
-14.5;-3.09E-08;11.149841;-0.5;-2.53E-06;11.149841;;;-14.5;2.52991E-06;3.09057E-08
-14;-2.92E-08;11.293855;-0.5;-2.54E-06;11.293855;;;-14;2.54184E-06;2.92379E-08
-13.5;-2.77E-08;11.4377;-0.5;-2.55E-06;11.4377;;;-13.5;2.55354E-06;2.76602E-08
-13;-2.61E-08;11.581678;-0.5;-2.56E-06;11.581678;;;-13;2.56377E-06;2.60954E-08
-12.5;-2.47E-08;11.725542;-0.5;-2.57E-06;11.725542;;;-12.5;2.57406E-06;2.47358E-08
-12;-2.33E-08;11.88493;-0.5;-2.58E-06;11.88493;;;-12;2.58274E-06;2.33336E-08
-11.5;-2.19E-08;12.028823;-0.5;-2.59E-06;12.028823;;;-11.5;2.58962E-06;2.19276E-08
-11;-2.06E-08;12.172632;-0.5;-2.60E-06;12.172632;;;-11;2.59588E-06;2.05502E-08
-10.5;-1.93E-08;12.316501;-0.5;-2.60E-06;12.316501;;;-10.5;2.6011E-06;1.92562E-08
-10;-1.80E-08;12.472154;-0.5;-2.60E-06;12.472154;;;-10;2.60326E-06;1.80132E-08
-9.5;-1.67E-08;12.616007;-0.5;-2.61E-06;12.616007;;;-9.5;2.60556E-06;1.672E-08
-9;-1.55E-08;12.760122;-0.5;-2.61E-06;12.760122;;;-9;2.60519E-06;1.54936E-08
-8.5;-1.43E-08;12.90398;-0.5;-2.60E-06;12.90398;;;-8.5;2.60368E-06;1.42964E-08
-8;-1.31E-08;13.047885;-0.5;-2.60E-06;13.047885;;;-8;2.59914E-06;1.31064E-08
-7.5;-1.19E-08;13.191742;-0.5;-2.59E-06;13.191742;;;-7.5;2.59351E-06;1.19459E-08
-7;-1.09E-08;13.366986;-0.5;-2.59E-06;13.366986;;;-7;2.58534E-06;1.09157E-08
-6.5;-9.75E-09;13.510904;-0.5;-2.57E-06;13.510904;;;-6.5;2.57468E-06;9.7457E-09
-6.00001;-8.64E-09;13.660812;-0.5;-2.56E-06;13.660812;;;-6.00001;2.56137E-06;8.63741E-09
-5.5;-7.57E-09;13.810655;-0.5;-2.55E-06;13.810655;;;-5.5;2.54502E-06;7.57071E-09
-5.00001;-6.53E-09;13.961683;-0.5;-2.53E-06;13.961683;;;-5.00001;2.52537E-06;6.52809E-09
-4.5;-5.49E-09;14.11146;-0.5;-2.50E-06;14.11146;;;-4.5;2.50265E-06;5.48536E-09
-4.00001;-4.47E-09;14.261402;-0.5;-2.48E-06;14.261402;;;-4.00001;2.47572E-06;4.47165E-09
-3.5;-3.48E-09;14.411274;-0.5;-2.45E-06;14.411274;;;-3.5;2.44523E-06;3.47663E-09
-3.00001;-2.50E-09;14.561153;-0.5;-2.41E-06;14.561153;;;-3.00001;2.41012E-06;2.50057E-09
-2.5;-1.56E-09;14.710968;-0.5;-2.37E-06;14.710968;;;-2.5;2.36952E-06;1.55815E-09
-2;-7.26E-10;14.889703;-0.5;-2.32E-06;14.889703;;;-2;2.32382E-06;7.2577E-10
-1.5;2.36E-10;15.039648;-0.5;-2.27E-06;15.039648;;;-1.5;2.27081E-06;2.3637E-10
-1.00001;1.13E-09;15.189473;-0.5;-2.21E-06;15.189473;;;-1.00001;2.20959E-06;1.12957E-09
-0.5;1.91E-09;15.363778;-0.5;-2.14E-06;15.363778;;;-0.5;2.13954E-06;1.90693E-09
-1.00E-05;2.79E-09;15.513652;-0.5;-2.06E-06;15.513652;;;-1.00E-05;2.05538E-06;2.79443E-09
0.49999;3.62E-09;15.663504;-0.5;-1.96E-06;15.663504;;;0.49999;1.95558E-06;3.62077E-09
0.99999;4.41E-09;15.813321;-0.5;-1.84E-06;15.813321;;;0.99999;1.84404E-06;4.40908E-09
1.5;5.17E-09;15.963291;-0.5;-1.72E-06;15.963291;;;1.5;1.72076E-06;5.17035E-09
2;5.90E-09;16.113135;-0.5;-1.59E-06;16.113135;;;2;1.58805E-06;5.90477E-09
2.5;6.60E-09;16.263001;-0.5;-1.45E-06;16.263001;;;2.5;1.44933E-06;6.60477E-09
2.99999;7.28E-09;16.412854;-0.5;-1.31E-06;16.412854;;;2.99999;1.30736E-06;7.27775E-09
3.49999;7.90E-09;16.562659;-0.5;-1.16E-06;16.562659;;;3.49999;1.16469E-06;7.9017E-09
3.99999;8.51E-09;16.712488;-0.5;-1.02E-06;16.712488;;;3.99999;1.02475E-06;8.51192E-09
4.5;8.96E-09;16.89344;-0.5;-8.91E-07;16.89344;;;4.5;8.9104E-07;8.96411E-09
4.99999;9.57E-09;17.040105;-0.5;-7.62E-07;17.040105;;;4.99999;7.61948E-07;9.5672E-09
5.49999;1.01E-08;17.183928;-0.5;-6.42E-07;17.183928;;;5.49999;6.41807E-07;1.00806E-08
6;1.06E-08;17.327787;-0.5;-5.33E-07;17.327787;;;6;5.32698E-07;1.0557E-08
6.49999;1.10E-08;17.493177;-0.5;-4.36E-07;17.493177;;;6.49999;4.36343E-07;1.09558E-08
7;1.14E-08;17.637052;-0.5;-3.52E-07;17.637052;;;7;3.51817E-07;1.13614E-08
7.49999;1.17E-08;17.780994;-0.5;-2.79E-07;17.780994;;;7.49999;2.79232E-07;1.17252E-08
7.99999;1.20E-08;17.925071;-0.5;-2.19E-07;17.925071;;;7.99999;2.18552E-07;1.20446E-08
8.49999;1.23E-08;18.068941;-0.5;-1.69E-07;18.068941;;;8.49999;1.6861E-07;1.23487E-08
8.99999;1.26E-08;18.212709;-0.5;-1.29E-07;18.212709;;;8.99999;1.29122E-07;1.26243E-08
9.49999;1.28E-08;18.381994;-0.5;-9.83E-08;18.381994;;;9.49999;9.8299E-08;1.27936E-08
9.99999;1.30E-08;18.543159;-0.5;-7.43E-08;18.543159;;;9.99999;7.42525E-08;1.29814E-08
10.49999;1.31E-08;18.707364;-0.499999;-5.64E-08;18.707364;;;10.49999;5.63837E-08;1.31392E-08
10.99999;1.32E-08;18.909441;-0.499999;-4.35E-08;18.909441;;;10.99999;4.35344E-08;1.32071E-08
11.49999;1.34E-08;19.073649;-0.500001;-3.40E-08;19.073649;;;11.49999;3.4029E-08;1.33588E-08
11.99999;1.35E-08;19.237725;-0.500001;-2.72E-08;19.237725;;;11.99999;2.72227E-08;1.34695E-08
12.49999;1.35E-08;19.429734;-0.500001;-2.24E-08;19.429734;;;12.49999;2.23563E-08;1.34975E-08
12.99999;1.36E-08;19.593864;-0.500001;-1.88E-08;19.593864;;;12.99999;1.87642E-08;1.36079E-08
13.5;1.38E-08;19.737684;-0.500001;-1.61E-08;19.737684;;;13.5;1.61307E-08;1.37957E-08
14;1.38E-08;19.906478;-0.500001;-1.41E-08;19.906478;;;14;1.41404E-08;1.37938E-08
14.49999;1.43E-08;20.050519;-0.500001;-1.27E-08;20.050519;;;14.49999;1.26697E-08;1.4253E-08
14.99999;1.47E-08;20.194347;-0.500001;-1.16E-08;20.194347;;;14.99999;1.15551E-08;1.46555E-08
15.49999;1.51E-08;20.338234;-0.500002;-1.08E-08;20.338234;;;15.49999;1.07731E-08;1.5115E-08
16;1.55E-08;20.499744;-0.500002;-1.03E-08;20.499744;;;16;1.02671E-08;1.5543E-08
16.5;1.60E-08;20.643624;-0.500002;-9.97E-09;20.643624;;;16.5;9.9658E-09;1.59908E-08
16.99999;1.63E-08;20.787511;-0.500002;-9.74E-09;20.787511;;;16.99999;9.7361E-09;1.62535E-08
17.49999;1.63E-08;20.931349;-0.500002;-9.53E-09;20.931349;;;17.49999;9.5274E-09;1.633E-08
17.99999;1.63E-08;21.075187;-0.500001;-9.33E-09;21.075187;;;17.99999;9.3287E-09;1.62532E-08
18.49999;1.61E-08;21.218998;-0.500001;-9.14E-09;21.218998;;;18.49999;9.1373E-09;1.60613E-08
18.99999;1.53E-08;21.407706;-0.5;-8.77E-09;21.407706;;;18.99999;8.77455E-09;1.53331E-08
19.49999;1.51E-08;21.577739;-0.5;-8.63E-09;21.577739;;;19.49999;8.63045E-09;1.50955E-08
19.99999;1.48E-08;21.747815;-0.500001;-8.48E-09;21.747815;;;19.99999;8.48337E-09;1.48026E-08
