#scan;iMeasureCycle=1;iMux=0;time=0.136;N=482;LocalTime=27/10/2023 13:15:45
#VGate(V);IGate(A);time(s);VDrain(V);IDrain(A);time(s)
-60;-6.05E-09;0.296773;0.999999;4.80E-11;0.296773
-59.5;-5.37E-09;0.44627;0.999999;2.58E-11;0.44627
-59.0001;-4.81E-09;0.622801;0.999999;4.55E-12;0.622801
-58.5;-4.43E-09;0.799394;0.999999;1.16E-11;0.799394
-58;-4.10E-09;1.000338;1;1.67E-11;1.000338
-57.5;-3.87E-09;1.176868;1;2.58E-11;1.176868
-57;-3.64E-09;1.38716;1;2.26E-11;1.38716
-56.5001;-3.47E-09;1.563779;1;2.46E-11;1.563779
-56;-3.28E-09;1.74055;1;8.71E-12;1.74055
-55.5001;-3.12E-09;1.917291;1;-4.74E-12;1.917291
-55;-3.03E-09;2.09392;0.999999;9.37E-12;2.09392
-54.5001;-2.91E-09;2.270362;0.999999;6.54E-12;2.270362
-54;-2.80E-09;2.447623;1;-4.70E-13;2.447623
-53.5;-2.71E-09;2.624269;0.999999;5.78E-12;2.624269
-53;-2.64E-09;2.800825;0.999999;1.34E-11;2.800825
-52.5;-2.52E-09;2.979283;0.999999;-6.01E-12;2.979283
-52.0001;-2.46E-09;3.155879;1;1.12E-12;3.155879
-51.5001;-2.38E-09;3.350662;1;-5.56E-12;3.350662
-51;-2.31E-09;3.527321;1;-1.76E-12;3.527321
-50.5001;-2.22E-09;3.703839;0.999999;-1.35E-11;3.703839
-50.0001;-2.20E-09;3.919284;1;8.07E-12;3.919284
-49.5;-2.13E-09;4.095885;0.999999;1.15E-12;4.095885
-49.0001;-2.01E-09;4.272447;1;-2.76E-11;4.272447
-48.5;-2.02E-09;4.449007;0.999999;4.54E-12;4.449007
-48;-1.99E-09;4.625478;1.000001;1.70E-11;4.625478
-47.5;-1.87E-09;4.801988;0.999999;-1.61E-11;4.801988
-47;-1.88E-09;4.978621;1;1.46E-11;4.978621
-46.5;-1.80E-09;5.155253;0.999999;2.04E-12;5.155253
-46;-1.75E-09;5.33171;0.999999;2.64E-12;5.33171
-45.5;-1.71E-09;5.514674;0.999999;1.06E-11;5.514674
-45.0001;-1.66E-09;5.691202;0.999999;1.57E-11;5.691202
-44.5001;-1.62E-09;5.89617;0.999999;2.30E-11;5.89617
-44;-1.59E-09;6.072842;1;4.50E-11;6.072842
-43.5;-1.55E-09;6.249243;0.999999;7.26E-11;6.249243
-43.0001;-1.50E-09;6.426355;0.999999;1.13E-10;6.426355
-42.5;-1.44E-09;6.60285;1;1.63E-10;6.60285
-42.0001;-1.44E-09;6.77939;0.999999;2.73E-10;6.77939
-41.4999;-1.39E-09;6.955834;0.999999;3.97E-10;6.955834
-41;-1.35E-09;7.132293;1;6.13E-10;7.132293
-40.5001;-1.31E-09;7.308756;0.999999;9.41E-10;7.308756
-40.0001;-1.27E-09;7.485339;1.000001;1.43E-09;7.485339
-39.5001;-1.23E-09;7.661622;0.999999;2.13E-09;7.661622
-39.0001;-1.20E-09;7.838141;1.000001;3.13E-09;7.838141
-38.5;-1.16E-09;7.993025;1;4.88E-09;7.993025
-38.0001;-1.12E-09;8.141994;1.000001;7.53E-09;8.141994
-37.5;-1.09E-09;8.312247;1.000001;1.07E-08;8.312247
-37;-1.06E-09;8.46229;1.000002;1.56E-08;8.46229
-36.5001;-1.02E-09;8.612437;1.000004;2.22E-08;8.612437
-36.0001;-9.79E-10;8.762592;1.000006;3.21E-08;8.762592
-35.5001;-9.50E-10;8.912805;1.000001;4.65E-08;8.912805
-35;-9.21E-10;9.062986;1.000014;6.32E-08;9.062986
-34.5001;-8.85E-10;9.213058;1.000011;8.38E-08;9.213058
-34;-8.80E-10;9.40622;1;1.09E-07;9.40622
-33.5001;-8.30E-10;9.556319;1;1.48E-07;9.556319
-33;-8.05E-10;9.706456;1;2.01E-07;9.706456
-32.5;-7.79E-10;9.889521;1;2.48E-07;9.889521
-32;-7.47E-10;10.039644;1;3.22E-07;10.039644
-31.5001;-7.14E-10;10.189766;1.000001;4.11E-07;10.189766
-31;-6.89E-10;10.339733;1;5.12E-07;10.339733
-30.5001;-6.49E-10;10.50058;1;6.21E-07;10.50058
-30.0001;-6.38E-10;10.650614;1;7.70E-07;10.650614
-29.5001;-6.06E-10;10.800712;1;9.25E-07;10.800712
-29;-5.72E-10;10.954124;1;1.11E-06;10.954124
-28.5001;-5.50E-10;11.104326;1;1.30E-06;11.104326
-28;-5.18E-10;11.254296;1;1.53E-06;11.254296
-27.5;-5.00E-10;11.41331;1;1.76E-06;11.41331
-27.0001;-4.66E-10;11.563372;1;2.03E-06;11.563372
-26.5;-4.44E-10;11.713501;1;2.31E-06;11.713501
-26;-4.34E-10;11.887372;1;2.61E-06;11.887372
-25.5001;-4.07E-10;12.037451;1;2.96E-06;12.037451
-25.0001;-3.77E-10;12.18748;1;3.32E-06;12.18748
-24.5;-3.51E-10;12.337488;1;3.71E-06;12.337488
-24;-3.34E-10;12.505411;1;4.08E-06;12.505411
-23.5;-3.08E-10;12.655402;1;4.50E-06;12.655402
-23.0001;-2.93E-10;12.80548;1;4.95E-06;12.80548
-22.5;-2.62E-10;12.955415;1;5.42E-06;12.955415
-22.0001;-2.40E-10;13.107243;1;5.91E-06;13.107243
-21.5001;-2.12E-10;13.257238;1;6.38E-06;13.257238
-21;-1.97E-10;13.417883;1;6.89E-06;13.417883
-20.5001;-1.73E-10;13.56771;1;7.42E-06;13.56771
-20.0001;-1.53E-10;13.717585;1;7.97E-06;13.717585
-19.5;-1.40E-10;13.892377;1;8.50E-06;13.892377
-19;-1.13E-10;14.042302;1;9.08E-06;14.042302
-18.5;-9.77E-11;14.192336;1;9.66E-06;14.192336
-18.0001;-7.00E-11;14.342154;1;1.03E-05;14.342154
-17.5001;-6.09E-11;14.513465;1;1.08E-05;14.513465
-17.0001;-4.17E-11;14.663283;1;1.15E-05;14.663283
-16.5001;-1.66E-11;14.813206;1;1.21E-05;14.813206
-16;7.27E-12;14.963109;1;1.28E-05;14.963109
-15.5;1.94E-11;15.113134;1;1.34E-05;15.113134
-15;3.73E-11;15.263002;1;1.41E-05;15.263002
-14.4999;5.22E-11;15.422912;1;1.47E-05;15.422912
-14.0001;7.22E-11;15.572807;1;1.54E-05;15.572807
-13.5;9.18E-11;15.722655;1;1.61E-05;15.722655
-13;9.70E-11;15.897514;1;1.68E-05;15.897514
-12.5001;1.17E-10;16.047469;1;1.75E-05;16.047469
-12;1.37E-10;16.19734;1;1.82E-05;16.19734
-11.5;1.50E-10;16.347182;1;1.90E-05;16.347182
-11.0001;1.62E-10;16.515066;1;1.97E-05;16.515066
-10.5001;1.83E-10;16.664854;0.999999;2.04E-05;16.664854
-10;1.98E-10;16.814769;1;2.12E-05;16.814769
-9.5;2.09E-10;16.96462;1;2.19E-05;16.96462
-9;2.29E-10;17.114626;1;2.27E-05;17.114626
-8.5;2.38E-10;17.264483;1;2.35E-05;17.264483
-8;2.43E-10;17.42748;1;2.42E-05;17.42748
-7.5;2.67E-10;17.577367;1;2.50E-05;17.577367
-7.0001;2.79E-10;17.727288;1;2.58E-05;17.727288
-6.5;2.82E-10;17.902537;1;2.65E-05;17.902537
-6;2.99E-10;18.052522;1;2.73E-05;18.052522
-5.5001;3.10E-10;18.202413;1;2.81E-05;18.202413
-5.0001;3.22E-10;18.352249;1;2.89E-05;18.352249
-4.5001;3.39E-10;18.519936;1;2.97E-05;18.519936
-4;3.45E-10;18.669839;1;3.06E-05;18.669839
-3.5001;3.63E-10;18.819679;1;3.14E-05;18.819679
-3.0001;3.77E-10;18.96952;1;3.22E-05;18.96952
-2.5001;3.94E-10;19.121832;1;3.30E-05;19.121832
-2;4.04E-10;19.271687;1;3.38E-05;19.271687
-1.5001;4.19E-10;19.432333;1;3.47E-05;19.432333
-1;4.37E-10;19.582184;1;3.55E-05;19.582184
-0.5;4.53E-10;19.73212;1;3.63E-05;19.73212
0;4.61E-10;19.907478;1;3.71E-05;19.907478
0.5;4.76E-10;20.057363;1;3.79E-05;20.057363
1;5.03E-10;20.207339;0.999999;3.87E-05;20.207339
1.4999;5.22E-10;20.357194;1;3.96E-05;20.357194
2;5.27E-10;20.524786;1;4.05E-05;20.524786
2.5;5.51E-10;20.674546;1;4.13E-05;20.674546
3;5.79E-10;20.82448;1;4.21E-05;20.82448
3.5;5.94E-10;20.974317;1;4.30E-05;20.974317
4;6.21E-10;21.124357;1;4.38E-05;21.124357
4.4999;6.31E-10;21.274151;1;4.46E-05;21.274151
4.9999;6.46E-10;21.437583;1;4.55E-05;21.437583
5.5;6.68E-10;21.587508;1;4.63E-05;21.587508
5.9999;6.92E-10;21.737387;1;4.72E-05;21.737387
6.4999;7.08E-10;21.912714;1;4.80E-05;21.912714
6.9999;7.29E-10;22.062624;0.999999;4.89E-05;22.062624
7.5;7.43E-10;22.21242;1;4.98E-05;22.21242
7.9999;7.74E-10;22.362191;1;5.06E-05;22.362191
8.4999;7.92E-10;22.529685;0.999999;5.14E-05;22.529685
9;8.02E-10;22.679465;1;5.23E-05;22.679465
9.5;8.29E-10;22.829359;1;5.31E-05;22.829359
9.9999;8.46E-10;22.979209;1;5.40E-05;22.979209
10.5;8.70E-10;23.131573;0.999999;5.48E-05;23.131573
11;8.79E-10;23.281391;1;5.56E-05;23.281391
11.4999;9.03E-10;23.443;1;5.65E-05;23.443
12;9.26E-10;23.59283;0.999999;5.74E-05;23.59283
12.4999;9.33E-10;23.742738;1;5.82E-05;23.742738
12.9999;9.60E-10;23.917536;1;5.91E-05;23.917536
13.4999;9.75E-10;24.067473;1;5.99E-05;24.067473
13.9999;9.97E-10;24.217297;1;6.08E-05;24.217297
14.5;1.01E-09;24.3671;1;6.16E-05;24.3671
15;1.03E-09;24.53449;1;6.24E-05;24.53449
15.4999;1.06E-09;24.684274;1;6.33E-05;24.684274
15.9999;1.07E-09;24.834184;1;6.42E-05;24.834184
16.4999;1.09E-09;24.984043;1;6.51E-05;24.984043
16.9999;1.12E-09;25.137213;1;6.59E-05;25.137213
17.4999;1.14E-09;25.287132;0.999999;6.67E-05;25.287132
17.9999;1.15E-09;25.452207;1;6.75E-05;25.452207
18.4999;1.17E-09;25.601998;1;6.84E-05;25.601998
19;1.19E-09;25.751872;1;6.93E-05;25.751872
19.4999;1.19E-09;25.941085;1;7.01E-05;25.941085
19.9999;1.22E-09;26.090942;1;7.09E-05;26.090942
20.4999;1.24E-09;26.24088;1;7.18E-05;26.24088
20.9999;1.25E-09;26.421832;1;7.26E-05;26.421832
21.4999;1.28E-09;26.571918;1;7.35E-05;26.571918
21.9999;1.30E-09;26.721867;1;7.43E-05;26.721867
22.5;1.32E-09;26.871865;1;7.51E-05;26.871865
22.9999;1.33E-09;27.04082;1;7.60E-05;27.04082
23.4999;1.36E-09;27.190885;0.999999;7.68E-05;27.190885
23.9999;1.38E-09;27.340858;0.999999;7.77E-05;27.340858
24.4999;1.40E-09;27.490846;1;7.85E-05;27.490846
25;1.42E-09;27.642674;1;7.94E-05;27.642674
25.5;1.45E-09;27.792848;0.999999;8.02E-05;27.792848
26;1.45E-09;27.954291;1;8.11E-05;27.954291
26.5;1.46E-09;28.104379;1;8.18E-05;28.104379
26.9999;1.49E-09;28.254454;1;8.27E-05;28.254454
27.5;1.50E-09;28.433031;1;8.35E-05;28.433031
27.9999;1.52E-09;28.583132;1;8.44E-05;28.583132
28.4999;1.54E-09;28.733121;1;8.52E-05;28.733121
29;1.56E-09;28.88322;0.999999;8.60E-05;28.88322
29.5;1.57E-09;29.046798;1;8.69E-05;29.046798
29.9999;1.59E-09;29.197207;1;8.77E-05;29.197207
30.4999;1.60E-09;29.347222;1;8.85E-05;29.347222
30.9999;1.62E-09;29.497342;1;8.94E-05;29.497342
31.4999;1.65E-09;29.648654;1;9.03E-05;29.648654
31.9999;1.67E-09;29.798856;1;9.10E-05;29.798856
32.4999;1.68E-09;29.959351;1;9.19E-05;29.959351
32.9999;1.70E-09;30.109571;1;9.28E-05;30.109571
33.5;1.72E-09;30.259718;0.999999;9.35E-05;30.259718
33.9999;1.73E-09;30.438023;0.999999;9.44E-05;30.438023
34.4999;1.74E-09;30.588165;0.999999;9.52E-05;30.588165
34.9999;1.78E-09;30.738172;0.999999;9.60E-05;30.738172
35.4999;1.79E-09;30.888235;1;9.69E-05;30.888235
36;1.79E-09;31.051554;1.000001;9.77E-05;31.051554
36.4999;1.82E-09;31.201706;0.999999;9.85E-05;31.201706
37;1.85E-09;31.35177;1;9.93E-05;31.35177
37.5;1.85E-09;31.501894;1;0.00010011;31.501894
37.9999;1.88E-09;31.653621;1;0.000100981;31.653621
38.5;1.89E-09;31.803767;1;0.000101821;31.803767
38.9999;1.91E-09;31.964624;1;0.000102606;31.964624
39.5;1.95E-09;32.114834;1;0.000103454;32.114834
40;1.95E-09;32.265022;1;0.000104272;32.265022
40.5;1.94E-09;32.438922;1;0.000105002;32.438922
41;1.96E-09;32.58916;1;0.000105853;32.58916
41.5;1.98E-09;32.739288;1;0.000106655;32.739288
41.9999;2.00E-09;32.889514;1;0.000107453;32.889514
42.4999;2.02E-09;33.050693;1;0.000108238;33.050693
42.9999;2.02E-09;33.200958;1;0.000109037;33.200958
43.4999;2.04E-09;33.351138;1;0.000109882;33.351138
43.9999;2.06E-09;33.501398;1;0.000110664;33.501398
44.4999;2.09E-09;33.651565;1;0.000111503;33.651565
44.9999;2.11E-09;33.801835;1;0.000112326;33.801835
45.4999;2.11E-09;33.969193;1;0.000113125;33.969193
46;2.15E-09;34.119717;1;0.000113973;34.119717
46.4999;2.18E-09;34.269941;1;0.000114811;34.269941
47;2.18E-09;34.444256;1;0.00011553;34.444256
47.5;2.22E-09;34.594674;1;0.000116307;34.594674
47.9999;2.22E-09;34.744876;1;0.000117112;34.744876
48.5;2.22E-09;34.895038;1;0.000117889;34.895038
49;2.23E-09;35.061746;1;0.00011867;35.061746
49.5;2.29E-09;35.212054;1;0.000119529;35.212054
50;2.30E-09;35.362241;1;0.000120306;35.362241
50.5;2.31E-09;35.512544;1;0.00012114;35.512544
50.9999;2.32E-09;35.663891;1;0.000121913;35.663891
51.5;2.35E-09;35.814296;1;0.000122826;35.814296
51.9999;2.35E-09;35.975321;1;0.00012351;35.975321
52.5;2.37E-09;36.125613;1;0.000124328;36.125613
53;2.40E-09;36.275876;1;0.000125108;36.275876
53.4999;2.39E-09;36.458217;1;0.00012584;36.458217
53.9999;2.43E-09;36.608642;1;0.000126617;36.608642
54.4999;2.45E-09;36.758842;0.999999;0.000127366;36.758842
54.9999;2.47E-09;36.909133;1;0.000128173;36.909133
55.4999;2.45E-09;37.06661;1;0.00012907;37.06661
56;2.50E-09;37.216957;1;0.000129786;37.216957
56.4999;2.52E-09;37.367212;1;0.000130644;37.367212
57;2.51E-09;37.517472;1;0.000131376;37.517472
57.4999;2.56E-09;37.6687;1;0.000132213;37.6687
58;2.57E-09;37.819153;1;0.000132957;37.819153
58.5;2.59E-09;37.979608;1;0.000133698;37.979608
59;2.61E-09;38.130185;1;0.000134495;38.130185
59.5;2.60E-09;38.280611;1;0.000135328;38.280611
59.9999;2.62E-09;38.463105;0.999999;0.000136012;38.463105
59.9999;2.57E-09;38.585534;1;0.000136012;38.585534
59.5;2.46E-09;38.735791;1;0.000135101;38.735791
59;2.38E-09;38.886199;1;0.000134175;38.886199
58.4999;2.31E-09;39.036532;1;0.000133156;39.036532
57.9999;2.23E-09;39.1869;1;0.00013229;39.1869
57.4999;2.18E-09;39.337133;1;0.00013139;39.337133
57;2.10E-09;39.487613;1;0.000130408;39.487613
56.4999;2.04E-09;39.637994;1;0.000129557;39.637994
56;2.01E-09;39.788379;1;0.00012868;39.788379
55.5;1.95E-09;39.972964;1;0.000127724;39.972964
54.9999;1.89E-09;40.123272;1;0.00012693;40.123272
54.4999;1.85E-09;40.273536;1;0.000125956;40.273536
53.9999;1.81E-09;40.456909;1;0.000125045;40.456909
53.5;1.76E-09;40.607361;1;0.000124192;40.607361
53;1.72E-09;40.757611;1;0.000123263;40.757611
52.4999;1.67E-09;40.907965;1;0.000122395;40.907965
52;1.65E-09;41.076349;1;0.000121424;41.076349
51.4999;1.60E-09;41.226658;1;0.000120509;41.226658
51;1.55E-09;41.376832;1;0.000119661;41.376832
50.4999;1.52E-09;41.52706;1;0.000118784;41.52706
50;1.49E-09;41.67829;1;0.000117762;41.67829
49.4999;1.46E-09;41.828643;1;0.000116874;41.828643
49;1.41E-09;41.989506;1;0.000116017;41.989506
48.5;1.38E-09;42.139804;1;0.000115078;42.139804
48;1.36E-09;42.290071;1;0.000114182;42.290071
47.5;1.32E-09;42.464112;1;0.000113262;42.464112
47;1.31E-09;42.614495;1;0.000112359;42.614495
46.4999;1.26E-09;42.764697;1;0.000111441;42.764697
46;1.24E-09;42.91495;1;0.000110532;42.91495
45.4999;1.20E-09;43.081349;1;0.000109564;43.081349
45;1.18E-09;43.231681;1;0.000108614;43.231681
44.4999;1.14E-09;43.381856;1;0.00010778;43.381856
44;1.10E-09;43.532011;1;0.000106825;43.532011
43.4999;1.08E-09;43.683149;1;0.00010592;43.683149
43;1.05E-09;43.833534;1;0.000105072;43.833534
42.4999;1.02E-09;43.994304;1;0.000104182;43.994304
41.9999;9.89E-10;44.14472;1;0.000103348;44.14472
41.4999;9.53E-10;44.295044;1;0.000102438;44.295044
40.9999;9.40E-10;44.469137;1;0.000101503;44.469137
40.4999;9.14E-10;44.619415;1;0.000100544;44.619415
40;8.88E-10;44.769529;1;9.96E-05;44.769529
39.5;8.66E-10;44.919596;0.999999;9.88E-05;44.919596
38.9999;8.40E-10;45.086832;1;9.78E-05;45.086832
38.5;8.20E-10;45.236923;0.999999;9.70E-05;45.236923
38;7.94E-10;45.387008;1;9.60E-05;45.387008
37.4999;7.55E-10;45.537036;1;9.52E-05;45.537036
37;7.34E-10;45.687953;1;9.42E-05;45.687953
36.4999;7.11E-10;45.838147;1;9.33E-05;45.838147
35.9999;6.89E-10;45.999403;0.999999;9.24E-05;45.999403
35.4999;6.55E-10;46.149502;1;9.14E-05;46.149502
35;6.32E-10;46.299628;0.999999;9.06E-05;46.299628
34.5;5.89E-10;46.481542;0.999999;8.97E-05;46.481542
33.9999;5.95E-10;46.631663;1;8.87E-05;46.631663
33.4999;5.66E-10;46.781736;1;8.79E-05;46.781736
32.9999;5.45E-10;46.931874;1;8.69E-05;46.931874
32.5;5.21E-10;47.091106;0.999999;8.60E-05;47.091106
32;5.07E-10;47.241202;0.999999;8.50E-05;47.241202
31.5;4.86E-10;47.391193;1;8.41E-05;47.391193
31;4.57E-10;47.541288;0.999999;8.32E-05;47.541288
30.4999;4.36E-10;47.692883;1;8.22E-05;47.692883
30;4.19E-10;47.843033;0.999999;8.13E-05;47.843033
29.5;4.07E-10;48.008809;1;8.04E-05;48.008809
28.9999;3.84E-10;48.158927;1;7.94E-05;48.158927
28.4999;3.66E-10;48.308988;1;7.85E-05;48.308988
28;3.59E-10;48.497794;0.999999;7.76E-05;48.497794
27.5;3.29E-10;48.647867;1;7.66E-05;48.647867
27;3.07E-10;48.797895;0.999999;7.57E-05;48.797895
26.5;2.97E-10;48.982791;1;7.48E-05;48.982791
26;2.75E-10;49.132837;1;7.38E-05;49.132837
25.4999;2.58E-10;49.282795;1;7.29E-05;49.282795
24.9999;2.34E-10;49.432748;1;7.19E-05;49.432748
24.4999;2.16E-10;49.597073;1;7.10E-05;49.597073
24;2.01E-10;49.747067;0.999999;7.00E-05;49.747067
23.5;1.81E-10;49.897077;1;6.91E-05;49.897077
22.9999;1.61E-10;50.047106;1;6.81E-05;50.047106
22.5;1.42E-10;50.199331;0.999999;6.71E-05;50.199331
22;1.24E-10;50.349281;1;6.62E-05;50.349281
21.4999;1.14E-10;50.510535;1;6.52E-05;50.510535
20.9999;8.86E-11;50.660342;1;6.43E-05;50.660342
20.5;7.14E-11;50.810267;1;6.33E-05;50.810267
19.9999;6.68E-11;50.984932;1;6.24E-05;50.984932
19.4999;4.86E-11;51.134964;1;6.13E-05;51.134964
19;3.01E-11;51.284763;1;6.04E-05;51.284763
18.4999;1.23E-11;51.434629;1;5.94E-05;51.434629
18;-2.72E-12;51.602781;1;5.84E-05;51.602781
17.4999;-2.35E-11;51.752739;1;5.74E-05;51.752739
16.9999;-3.28E-11;51.902691;1;5.64E-05;51.902691
16.5;-5.17E-11;52.052559;0.999999;5.55E-05;52.052559
16;-6.85E-11;52.204013;1;5.45E-05;52.204013
15.4999;-8.19E-11;52.353887;1;5.35E-05;52.353887
14.9999;-9.64E-11;52.515355;1;5.25E-05;52.515355
14.4999;-1.14E-10;52.665237;1;5.15E-05;52.665237
13.9999;-1.29E-10;52.815108;1;5.05E-05;52.815108
13.5001;-1.45E-10;52.989966;1;4.95E-05;52.989966
12.9999;-1.56E-10;53.139938;1;4.85E-05;53.139938
12.5;-1.69E-10;53.289786;1;4.75E-05;53.289786
11.9999;-1.84E-10;53.439569;1;4.65E-05;53.439569
11.4999;-1.93E-10;53.60659;1;4.55E-05;53.60659
11;-2.14E-10;53.756542;1;4.45E-05;53.756542
10.5;-2.25E-10;53.906479;1;4.34E-05;53.906479
10;-2.38E-10;54.056335;1;4.24E-05;54.056335
9.5;-2.59E-10;54.206429;1;4.13E-05;54.206429
9;-2.67E-10;54.356364;0.999999;4.03E-05;54.356364
8.4999;-2.73E-10;54.524025;1;3.93E-05;54.524025
7.9999;-3.00E-10;54.673954;1;3.82E-05;54.673954
7.5;-3.15E-10;54.823759;1;3.71E-05;54.823759
7;-3.13E-10;55.013761;1;3.61E-05;55.013761
6.4999;-3.44E-10;55.163659;1;3.50E-05;55.163659
5.9999;-3.54E-10;55.313557;1;3.40E-05;55.313557
5.5;-3.64E-10;55.494365;1;3.29E-05;55.494365
5;-3.91E-10;55.644362;1;3.18E-05;55.644362
4.5;-4.12E-10;55.794235;1;3.07E-05;55.794235
3.9999;-4.28E-10;55.944134;1;2.96E-05;55.944134
3.4999;-4.49E-10;56.112931;1;2.85E-05;56.112931
3;-4.66E-10;56.262799;1;2.75E-05;56.262799
2.5;-4.97E-10;56.412638;1;2.64E-05;56.412638
2;-5.24E-10;56.562577;1;2.53E-05;56.562577
1.4999;-5.41E-10;56.712428;1;2.42E-05;56.712428
0.9999;-5.68E-10;56.862298;1;2.32E-05;56.862298
0.4999;-5.82E-10;57.026601;1;2.21E-05;57.026601
-0.0001;-6.05E-10;57.176496;0.999999;2.10E-05;57.176496
-0.5;-6.29E-10;57.326357;1;2.00E-05;57.326357
-1.0001;-6.43E-10;57.502491;1;1.90E-05;57.502491
-1.5;-6.73E-10;57.652393;1;1.80E-05;57.652393
-2.0001;-6.90E-10;57.802252;1;1.70E-05;57.802252
-2.5;-7.11E-10;57.952145;1;1.60E-05;57.952145
-3;-7.34E-10;58.118739;0.999999;1.51E-05;58.118739
-3.5001;-7.48E-10;58.268641;0.999999;1.42E-05;58.268641
-4;-7.83E-10;58.418477;1;1.33E-05;58.418477
-4.5001;-8.03E-10;58.568344;1;1.25E-05;58.568344
-5;-8.35E-10;58.718394;1;1.17E-05;58.718394
-5.5;-8.52E-10;58.868323;1;1.09E-05;58.868323
-6.0001;-8.81E-10;59.031297;0.999999;1.02E-05;59.031297
-6.5;-8.93E-10;59.181146;0.999999;9.46E-06;59.181146
-7;-9.12E-10;59.333716;1;8.78E-06;59.333716
-7.5001;-9.17E-10;59.52088;1;8.11E-06;59.52088
-8;-9.52E-10;59.670781;1;7.48E-06;59.670781
-8.5001;-9.75E-10;59.820733;1;6.89E-06;59.820733
-9;-9.75E-10;60.005923;0.999999;6.32E-06;60.005923
-9.5;-1.01E-09;60.155837;0.999999;5.82E-06;60.155837
-10;-1.03E-09;60.305643;1;5.33E-06;60.305643
-10.5001;-1.05E-09;60.455515;1;4.86E-06;60.455515
-11.0001;-1.07E-09;60.624808;1;4.42E-06;60.624808
-11.5;-1.10E-09;60.774662;1;4.03E-06;60.774662
-12;-1.12E-09;60.924691;1;3.66E-06;60.924691
-12.5001;-1.14E-09;61.074551;1;3.33E-06;61.074551
-13.0001;-1.15E-09;61.224624;1;3.01E-06;61.224624
-13.5001;-1.18E-09;61.374442;1;2.75E-06;61.374442
-14;-1.20E-09;61.537216;1;2.48E-06;61.537216
-14.5001;-1.22E-09;61.68712;1;2.25E-06;61.68712
-15.0001;-1.24E-09;61.836991;0.999999;2.02E-06;61.836991
-15.5001;-1.25E-09;62.016601;1;1.81E-06;62.016601
-16.0001;-1.26E-09;62.16649;1;1.61E-06;62.16649
-16.5001;-1.28E-09;62.316387;1;1.42E-06;62.316387
-17;-1.31E-09;62.466217;1;1.25E-06;62.466217
-17.5001;-1.33E-09;62.629735;1;1.09E-06;62.629735
-18;-1.34E-09;62.779657;1;9.42E-07;62.779657
-18.5001;-1.36E-09;62.932437;1;8.06E-07;62.932437
-19;-1.39E-09;63.082225;1;6.79E-07;63.082225
-19.5001;-1.40E-09;63.232144;1;5.72E-07;63.232144
-20.0001;-1.42E-09;63.381985;1;4.66E-07;63.381985
-20.5001;-1.43E-09;63.542922;1;3.79E-07;63.542922
-21;-1.45E-09;63.692797;0.999999;2.95E-07;63.692797
-21.5001;-1.47E-09;63.842881;1;2.30E-07;63.842881
-22.0001;-1.48E-09;64.017308;0.999999;1.72E-07;64.017308
-22.5;-1.51E-09;64.167448;1;1.27E-07;64.167448
-23;-1.53E-09;64.31742;1;8.88E-08;64.31742
-23.5001;-1.53E-09;64.50314;0.999997;5.90E-08;64.50314
-24;-1.56E-09;64.653238;0.999999;3.82E-08;64.653238
-24.5001;-1.59E-09;64.803218;0.999999;2.41E-08;64.803218
-25.0001;-1.60E-09;64.953233;0.999998;1.41E-08;64.953233
