Time (s)	|IDrain (A)|	|IGate (A)	Vdrain(V)	Vgate(V)
0.0	3.2844e-09	9.5557e-09	-10.0	20.0
1.0	1.8122e-09	2.8e-09	-10.0	19.9
1.5	1.4988e-09	2.135e-09	-10.0	19.8
2.0	1.3224e-09	1.7939e-09	-10.0	19.7
2.5	1.2101e-09	1.5859e-09	-10.0	19.6
3.0	1.1349e-09	1.4486e-09	-10.0	19.5
3.5	1.0786e-09	1.3475e-09	-10.0	19.4
4.0	1.0377e-09	1.2722e-09	-10.0	19.3
4.5	1.0029e-09	1.206e-09	-10.0	19.2
5.0	9.7545e-10	1.1511e-09	-10.0	19.1
5.5	9.5073e-10	1.1034e-09	-10.0	19.0
6.0	9.3034e-10	1.0581e-09	-10.0	18.9
6.5	9.1522e-10	1.0135e-09	-10.0	18.8
7.0	9.0481e-10	9.7579e-10	-10.0	18.7
7.5	8.9866e-10	9.3833e-10	-10.0	18.6
8.0	9.0497e-10	9.0332e-10	-10.0	18.5
8.5	9.1697e-10	8.7345e-10	-10.0	18.4
9.0	9.3996e-10	8.4844e-10	-10.0	18.3
9.5	9.6888e-10	8.2418e-10	-10.0	18.2
10.0	1.0176e-09	8.05e-10	-10.0	18.1
10.5	1.0734e-09	7.8906e-10	-10.0	18.0
11.0	1.1418e-09	7.731e-10	-10.0	17.9
11.5	1.2273e-09	7.5662e-10	-10.0	17.8
12.0	1.3317e-09	7.3946e-10	-10.0	17.7
12.5	1.4518e-09	7.9482e-10	-10.0	17.6
13.0	1.5952e-09	6.0222e-10	-10.0	17.5
13.5	1.7606e-09	6.7504e-10	-10.0	17.4
14.0	1.956e-09	6.5367e-10	-10.0	17.3
14.5	2.1843e-09	6.2949e-10	-10.0	17.2
15.0	2.4448e-09	6.1704e-10	-10.0	17.1
15.5	2.7437e-09	3.0381e-10	-10.0	17.0
16.0	3.0894e-09	5.4408e-10	-10.0	16.9
16.5	3.4714e-09	5.2105e-10	-10.0	16.8
17.0	3.9064e-09	4.9224e-10	-10.0	16.7
17.5	4.3895e-09	4.6285e-10	-10.0	16.6
18.0	4.9402e-09	4.406e-10	-10.0	16.5
18.5	5.5501e-09	4.2337e-10	-10.0	16.4
19.0	6.2304e-09	4.1385e-10	-10.0	16.3
19.5	6.9924e-09	4.149e-10	-10.0	16.2
20.0	7.8336e-09	4.2114e-10	-10.0	16.1
20.5	8.7552e-09	4.2852e-10	-10.0	16.0
21.0	9.7422e-09	4.3326e-10	-10.0	15.9
21.5	1.0828e-08	4.3643e-10	-10.0	15.8
22.0	1.2027e-08	4.3812e-10	-10.0	15.7
22.5	1.3325e-08	4.3872e-10	-10.0	15.6
23.0	1.4748e-08	4.4111e-10	-10.0	15.5
23.5	1.6289e-08	4.465e-10	-10.0	15.4
24.0	1.7969e-08	4.5196e-10	-10.0	15.3
24.5	1.9798e-08	4.5446e-10	-10.0	15.2
25.0	2.1804e-08	4.6149e-10	-10.0	15.1
25.5	2.3985e-08	4.6638e-10	-10.0	15.0
26.0	2.6379e-08	4.7313e-10	-10.0	14.9
26.5	2.9016e-08	4.8248e-10	-10.0	14.8
27.0	3.1898e-08	4.8538e-10	-10.0	14.7
27.5	3.5044e-08	4.9604e-10	-10.0	14.6
28.0	3.8498e-08	5.0414e-10	-10.0	14.5
28.5	4.2281e-08	5.0793e-10	-10.0	14.4
29.0	4.6414e-08	5.1438e-10	-10.0	14.3
29.5	5.1022e-08	5.2214e-10	-10.0	14.2
30.0	5.5994e-08	5.2539e-10	-10.0	14.1
30.5	6.148e-08	4.0641e-10	-10.0	14.0
31.0	6.7556e-08	4.134e-10	-10.0	13.9
31.5	7.424e-08	5.3801e-10	-10.0	13.8
32.0	8.1519e-08	5.3879e-10	-10.0	13.7
32.5	8.9591e-08	5.4455e-10	-10.0	13.6
33.0	9.8433e-08	5.4451e-10	-10.0	13.5
33.5	1.0769e-07	5.4444e-10	-10.0	13.4
34.0	1.1862e-07	4.9899e-10	-10.0	13.3
34.5	1.3025e-07	5.47e-10	-10.0	13.2
35.0	1.4282e-07	5.4571e-10	-10.0	13.1
35.5	1.5657e-07	5.4911e-10	-10.0	13.0
36.0	1.7156e-07	5.4741e-10	-10.0	12.9
36.5	1.8783e-07	5.4927e-10	-10.0	12.8
37.0	2.0533e-07	5.4709e-10	-10.0	12.7
37.5	2.243e-07	5.4672e-10	-10.0	12.6
38.0	2.4475e-07	5.4928e-10	-10.0	12.5
38.5	2.6698e-07	5.4785e-10	-10.0	12.4
39.0	2.9067e-07	5.4268e-10	-10.0	12.3
39.5	3.1632e-07	5.4288e-10	-10.0	12.2
40.0	3.4378e-07	5.4194e-10	-10.0	12.1
40.5	3.7336e-07	5.4487e-10	-10.0	12.0
41.0	4.0474e-07	5.4311e-10	-10.0	11.9
41.5	4.3869e-07	5.4233e-10	-10.0	11.8
42.0	4.75e-07	5.383e-10	-10.0	11.7
42.5	5.1396e-07	5.4e-10	-10.0	11.6
43.0	5.549e-07	5.3711e-10	-10.0	11.5
43.5	5.9861e-07	5.3616e-10	-10.0	11.4
44.0	6.4486e-07	5.3443e-10	-10.0	11.3
44.5	6.9447e-07	5.3272e-10	-10.0	11.2
45.0	7.4696e-07	5.2962e-10	-10.0	11.1
45.5	8.0192e-07	5.8994e-10	-10.0	11.0
46.001	8.62e-07	2.1396e-10	-10.0	10.9
46.5	9.2322e-07	5.2681e-10	-10.0	10.8
47.0	9.8901e-07	5.2543e-10	-10.0	10.7
47.5	1.058e-06	5.234e-10	-10.0	10.6
48.0	1.1313e-06	4.7859e-10	-10.0	10.5
48.5	1.208e-06	5.1556e-10	-10.0	10.4
49.0	1.289e-06	5.1339e-10	-10.0	10.3
49.5	1.375e-06	5.0607e-10	-10.0	10.2
50.0	1.4645e-06	5.0075e-10	-10.0	10.1
50.5	1.5587e-06	4.9681e-10	-10.0	10.0
51.0	1.6581e-06	4.8955e-10	-10.0	9.9
51.5	1.7618e-06	4.8605e-10	-10.0	9.8
52.0	1.8709e-06	4.7838e-10	-10.0	9.7
52.5	1.9851e-06	4.7625e-10	-10.0	9.6
53.0	2.1042e-06	4.7454e-10	-10.0	9.5
53.5	2.2295e-06	4.6991e-10	-10.0	9.4
54.0	2.3594e-06	4.6966e-10	-10.0	9.3
54.5	2.4946e-06	4.6737e-10	-10.0	9.2
55.0	2.6353e-06	4.6681e-10	-10.0	9.1
55.5	2.7807e-06	4.6217e-10	-10.0	9.0
56.0	2.9315e-06	4.6197e-10	-10.0	8.9
56.5	3.0876e-06	4.5828e-10	-10.0	8.8
57.0	3.2491e-06	4.5146e-10	-10.0	8.7
57.5	3.4158e-06	4.5212e-10	-10.0	8.6
58.0	3.5896e-06	4.4855e-10	-10.0	8.5
58.5	3.768e-06	4.4274e-10	-10.0	8.4
59.0	3.9508e-06	4.3878e-10	-10.0	8.3
59.5	4.1397e-06	4.3353e-10	-10.0	8.2
60.0	4.3346e-06	4.2797e-10	-10.0	8.1
60.5	4.5329e-06	4.3995e-10	-10.0	8.0
61.0	4.7412e-06	8.1867e-11	-10.0	7.9
61.5	4.9502e-06	4.1197e-10	-10.0	7.8
62.0	5.1662e-06	4.0637e-10	-10.0	7.7
62.5	5.388e-06	3.982e-10	-10.0	7.6
63.0	5.6147e-06	3.9332e-10	-10.0	7.5
63.5	5.8454e-06	3.8812e-10	-10.0	7.4
64.0	6.0825e-06	3.8479e-10	-10.0	7.3
64.5	6.3248e-06	3.7875e-10	-10.0	7.2
65.0	6.572e-06	3.7742e-10	-10.0	7.1
65.5	6.8248e-06	3.7714e-10	-10.0	7.0
66.0	7.0795e-06	3.7332e-10	-10.0	6.9
66.5	7.3431e-06	3.723e-10	-10.0	6.8
67.0	7.6069e-06	3.678e-10	-10.0	6.7
67.5	7.8788e-06	3.631e-10	-10.0	6.6
68.0	8.1536e-06	3.5855e-10	-10.0	6.5
68.5	8.4353e-06	3.5572e-10	-10.0	6.4
69.0	8.7203e-06	3.5737e-10	-10.0	6.3
69.5	9.0096e-06	3.5651e-10	-10.0	6.2
70.0	9.305e-06	3.5347e-10	-10.0	6.1
70.5	9.6044e-06	3.5814e-10	-10.0	6.0
71.0	9.9065e-06	3.5992e-10	-10.0	5.9
71.5	1.0209e-05	3.5654e-10	-10.0	5.8
72.0	1.0524e-05	3.0933e-10	-10.0	5.7
72.5	1.0839e-05	3.5676e-10	-10.0	5.6
73.0	1.1157e-05	3.587e-10	-10.0	5.5
73.5	1.1478e-05	3.5765e-10	-10.0	5.4
74.0	1.1802e-05	3.5991e-10	-10.0	5.3
74.5	1.2133e-05	3.5863e-10	-10.0	5.2
75.0	1.2466e-05	3.5902e-10	-10.0	5.1
75.5	1.2797e-05	3.581e-10	-10.0	5.0
76.0	1.3134e-05	2.5434e-10	-10.0	4.9
76.5	1.3478e-05	2.5324e-10	-10.0	4.8
77.0	1.3821e-05	3.5937e-10	-10.0	4.7
77.5	1.4164e-05	3.6114e-10	-10.0	4.6
78.0	1.4514e-05	3.6183e-10	-10.0	4.5
78.5	1.4862e-05	3.6258e-10	-10.0	4.4
79.0	1.5213e-05	3.6512e-10	-10.0	4.3
79.5	1.5566e-05	3.63e-10	-10.0	4.2
80.0	1.5923e-05	3.6358e-10	-10.0	4.1
80.5	1.6279e-05	3.6695e-10	-10.0	4.0
81.0	1.6639e-05	3.6441e-10	-10.0	3.9
81.5	1.7002e-05	3.6606e-10	-10.0	3.8
82.0	1.7363e-05	3.647e-10	-10.0	3.7
82.5	1.7726e-05	3.6716e-10	-10.0	3.6
83.0	1.8092e-05	3.6554e-10	-10.0	3.5
83.5	1.846e-05	3.6613e-10	-10.0	3.4
84.0	1.8833e-05	3.636e-10	-10.0	3.3
84.5	1.9198e-05	3.632e-10	-10.0	3.2
85.0	1.9572e-05	3.6027e-10	-10.0	3.1
85.5	1.9947e-05	3.6062e-10	-10.0	3.0
86.0	2.032e-05	3.5971e-10	-10.0	2.9
86.5	2.0699e-05	3.5722e-10	-10.0	2.8
87.0	2.1073e-05	3.5615e-10	-10.0	2.7
87.5	2.145e-05	3.5054e-10	-10.0	2.6
88.0	2.1831e-05	3.5356e-10	-10.0	2.5
88.5	2.2211e-05	3.5046e-10	-10.0	2.4
89.0	2.2594e-05	3.4953e-10	-10.0	2.3
89.5	2.2972e-05	3.4758e-10	-10.0	2.2
90.0	2.3359e-05	3.4652e-10	-10.0	2.1
90.5	2.3755e-05	3.4311e-10	-10.0	2.0
91.0	2.4128e-05	3.9999e-10	-10.0	1.9
91.5	2.4523e-05	6.8458e-11	-10.0	1.8
92.0	2.4906e-05	3.3442e-10	-10.0	1.7
92.5	2.5291e-05	3.3495e-10	-10.0	1.6
93.0	2.5682e-05	3.3498e-10	-10.0	1.5
93.5	2.6071e-05	3.3125e-10	-10.0	1.4
94.0	2.6457e-05	3.2873e-10	-10.0	1.3
94.5	2.6852e-05	3.2791e-10	-10.0	1.2
95.0	2.7246e-05	3.2474e-10	-10.0	1.1
95.5	2.7636e-05	3.2392e-10	-10.0	1.0
96.0	2.8024e-05	3.2235e-10	-10.0	0.9
96.5	2.8419e-05	3.167e-10	-10.0	0.8
97.0	2.8807e-05	3.1534e-10	-10.0	0.7
97.5	2.9196e-05	3.1169e-10	-10.0	0.6
98.0	2.9589e-05	3.0844e-10	-10.0	0.5
98.5	2.9977e-05	3.0629e-10	-10.0	0.4
99.0	3.0365e-05	3.0411e-10	-10.0	0.3
99.5	3.0753e-05	3.0153e-10	-10.0	0.2
100.0	3.1137e-05	2.9682e-10	-10.0	0.1
100.5	3.152e-05	2.9423e-10	-10.0	-1.5293e-14
101.0	3.1907e-05	2.9327e-10	-10.0	-0.1
101.5	3.2288e-05	2.9042e-10	-10.0	-0.2
102.0	3.2668e-05	2.8795e-10	-10.0	-0.3
102.5	3.3042e-05	2.8286e-10	-10.0	-0.4
103.0	3.3423e-05	2.7943e-10	-10.0	-0.5
103.5	3.3795e-05	2.7933e-10	-10.0	-0.6
104.0	3.4172e-05	2.7386e-10	-10.0	-0.7
104.5	3.4539e-05	2.7033e-10	-10.0	-0.8
105.0	3.4906e-05	2.6691e-10	-10.0	-0.9
105.5	3.5269e-05	2.6398e-10	-10.0	-1.0
106.0	3.5633e-05	2.8715e-10	-10.0	-1.1
106.5	3.6002e-05	1.2502e-10	-10.0	-1.2
107.0	3.6363e-05	2.5482e-10	-10.0	-1.3
107.5	3.6718e-05	2.5032e-10	-10.0	-1.4
108.0	3.7068e-05	2.4593e-10	-10.0	-1.5
108.5	3.7414e-05	2.4467e-10	-10.0	-1.6
109.0	3.7762e-05	2.4037e-10	-10.0	-1.7
109.5	3.8109e-05	2.3649e-10	-10.0	-1.8
110.0	3.8456e-05	2.3257e-10	-10.0	-1.9
110.5	3.8794e-05	2.2824e-10	-10.0	-2.0
111.0	3.9136e-05	2.2365e-10	-10.0	-2.1
111.5	3.9475e-05	2.2165e-10	-10.0	-2.2
112.0	3.9803e-05	2.1596e-10	-10.0	-2.3
112.5	4.0137e-05	2.1284e-10	-10.0	-2.4
113.0	4.0451e-05	2.0704e-10	-10.0	-2.5
113.5	4.0784e-05	2.0333e-10	-10.0	-2.6
114.0	4.1109e-05	2.0027e-10	-10.0	-2.7
114.5	4.143e-05	1.9592e-10	-10.0	-2.8
115.0	4.175e-05	1.9296e-10	-10.0	-2.9
115.5	4.2067e-05	1.8851e-10	-10.0	-3.0
116.0	4.2374e-05	1.8384e-10	-10.0	-3.1
116.5	4.2684e-05	1.8075e-10	-10.0	-3.2
117.0	4.2982e-05	1.7541e-10	-10.0	-3.3
117.5	4.3293e-05	1.7203e-10	-10.0	-3.4
118.0	4.3585e-05	1.6631e-10	-10.0	-3.5
118.5	4.3876e-05	1.6233e-10	-10.0	-3.6
119.0	4.4169e-05	1.5589e-10	-10.0	-3.7
119.5	4.4462e-05	1.5287e-10	-10.0	-3.8
120.0	4.4751e-05	1.4815e-10	-10.0	-3.9
120.5	4.5028e-05	1.4301e-10	-10.0	-4.0
121.0	4.5303e-05	1.4567e-10	-10.0	-4.1
121.5	4.5591e-05	2.0947e-10	-10.0	-4.2
122.0	4.5857e-05	1.299e-10	-10.0	-4.3
122.5	4.6125e-05	1.2155e-10	-10.0	-4.4
123.0	4.6401e-05	1.193e-10	-10.0	-4.5
123.5	4.6668e-05	1.1239e-10	-10.0	-4.6
124.0	4.6923e-05	1.0726e-10	-10.0	-4.7
124.5	4.7179e-05	1.0271e-10	-10.0	-4.8
125.0	4.7445e-05	9.7766e-11	-10.0	-4.9
125.5	4.7694e-05	9.2606e-11	-10.0	-5.0
126.0	4.7939e-05	8.5897e-11	-10.0	-5.1
126.5	4.82e-05	8.2027e-11	-10.0	-5.2
127.0	4.8439e-05	7.3985e-11	-10.0	-5.3
127.5	4.8672e-05	6.8635e-11	-10.0	-5.4
128.0	4.8906e-05	6.2792e-11	-10.0	-5.5
128.5	4.9142e-05	5.5417e-11	-10.0	-5.6
129.0	4.9364e-05	4.9387e-11	-10.0	-5.7
129.5	4.9595e-05	4.1721e-11	-10.0	-5.8
130.0	4.9829e-05	3.6304e-11	-10.0	-5.9
130.5	5.0038e-05	2.7358e-11	-10.0	-6.0
131.0	5.0256e-05	1.9355e-11	-10.0	-6.1
131.5	5.0467e-05	1.1262e-11	-10.0	-6.2
132.0	5.0679e-05	2.7108e-12	-10.0	-6.3
132.5	5.0886e-05	6.5458e-12	-10.0	-6.4
133.0	5.1077e-05	1.5552e-11	-10.0	-6.5
133.5	5.1278e-05	2.5069e-11	-10.0	-6.6
134.0	5.1461e-05	3.5073e-11	-10.0	-6.7
134.5	5.1647e-05	4.5931e-11	-10.0	-6.8
135.0	5.1845e-05	5.6853e-11	-10.0	-6.9
135.5	5.2041e-05	6.8338e-11	-10.0	-7.0
136.0	5.2222e-05	8.0198e-11	-10.0	-7.1
136.5	5.2381e-05	7.5425e-11	-10.0	-7.2
137.0	5.2565e-05	4.2961e-10	-10.0	-7.3
137.5	5.2731e-05	1.2411e-10	-10.0	-7.4
138.0	5.2895e-05	1.3853e-10	-10.0	-7.5
138.5	5.3063e-05	1.5619e-10	-10.0	-7.6
139.0	5.322e-05	1.7396e-10	-10.0	-7.7
139.5	5.3377e-05	1.9268e-10	-10.0	-7.8
140.0	5.354e-05	2.141e-10	-10.0	-7.9
140.5	5.3704e-05	2.3621e-10	-10.0	-8.0
141.0	5.3837e-05	2.5439e-10	-10.0	-8.1
141.5	5.3981e-05	2.8254e-10	-10.0	-8.2
142.0	5.4129e-05	3.0573e-10	-10.0	-8.3
142.5	5.4267e-05	3.3126e-10	-10.0	-8.4
143.0	5.4404e-05	3.6243e-10	-10.0	-8.5
143.5	5.454e-05	3.9594e-10	-10.0	-8.6
144.0	5.4665e-05	4.2487e-10	-10.0	-8.7
144.5	5.4799e-05	4.6189e-10	-10.0	-8.8
145.0	5.4927e-05	4.9761e-10	-10.0	-8.9
145.5	5.5044e-05	5.3703e-10	-10.0	-9.0
146.0	5.5161e-05	5.7452e-10	-10.0	-9.1
146.5	5.5273e-05	6.1756e-10	-10.0	-9.2
147.0	5.539e-05	6.5991e-10	-10.0	-9.3
147.5	5.5508e-05	7.0381e-10	-10.0	-9.4
148.0	5.561e-05	7.4793e-10	-10.0	-9.5
148.5	5.5721e-05	7.9312e-10	-10.0	-9.6
149.0	5.5824e-05	8.3691e-10	-10.0	-9.7
149.5	5.5929e-05	8.8604e-10	-10.0	-9.8
150.0	5.603e-05	9.323e-10	-10.0	-9.9
150.5	5.6139e-05	9.7936e-10	-10.0	-10.0
151.0	5.6235e-05	1.0262e-09	-10.0	-10.1
151.5	5.6326e-05	1.0716e-09	-10.0	-10.2
152.0	5.6428e-05	1.4212e-09	-10.0	-10.3
152.5	5.6522e-05	1.1727e-09	-10.0	-10.4
153.0	5.6607e-05	1.2215e-09	-10.0	-10.5
153.5	5.6693e-05	1.2737e-09	-10.0	-10.6
154.0	5.6805e-05	1.3227e-09	-10.0	-10.7
154.5	5.6875e-05	1.3728e-09	-10.0	-10.8
155.0	5.6965e-05	1.4256e-09	-10.0	-10.9
155.5	5.7049e-05	1.4754e-09	-10.0	-11.0
156.0	5.7119e-05	1.527e-09	-10.0	-11.1
156.5	5.7203e-05	1.5774e-09	-10.0	-11.2
157.0	5.7287e-05	1.633e-09	-10.0	-11.3
157.5	5.7367e-05	1.6828e-09	-10.0	-11.4
158.0	5.744e-05	1.7368e-09	-10.0	-11.5
158.5	5.7511e-05	1.7834e-09	-10.0	-11.6
159.0	5.7579e-05	1.8366e-09	-10.0	-11.7
159.5	5.765e-05	1.8919e-09	-10.0	-11.8
160.0	5.7725e-05	1.9446e-09	-10.0	-11.9
160.5	5.7785e-05	1.9977e-09	-10.0	-12.0
161.0	5.7847e-05	2.0537e-09	-10.0	-12.1
161.5	5.7901e-05	2.1081e-09	-10.0	-12.2
162.0	5.7969e-05	2.1603e-09	-10.0	-12.3
162.5	5.803e-05	2.2129e-09	-10.0	-12.4
163.0	5.809e-05	2.2668e-09	-10.0	-12.5
163.5	5.8132e-05	2.321e-09	-10.0	-12.6
164.0	5.8196e-05	2.3754e-09	-10.0	-12.7
164.5	5.8259e-05	2.4289e-09	-10.0	-12.8
165.0	5.8309e-05	2.4849e-09	-10.0	-12.9
165.5	5.8354e-05	2.5369e-09	-10.0	-13.0
166.0	5.8401e-05	2.5943e-09	-10.0	-13.1
166.5	5.8453e-05	2.646e-09	-10.0	-13.2
167.0	5.8503e-05	2.9802e-09	-10.0	-13.3
167.5	5.8552e-05	2.7572e-09	-10.0	-13.4
168.0	5.8605e-05	2.814e-09	-10.0	-13.5
168.5	5.8648e-05	2.8689e-09	-10.0	-13.6
169.0	5.8697e-05	2.9225e-09	-10.0	-13.7
169.5	5.8741e-05	2.9801e-09	-10.0	-13.8
170.0	5.88e-05	3.0338e-09	-10.0	-13.9
170.5	5.884e-05	3.0896e-09	-10.0	-14.0
171.0	5.887e-05	3.1458e-09	-10.0	-14.1
171.5	5.891e-05	3.1995e-09	-10.0	-14.2
172.0	5.8957e-05	3.2603e-09	-10.0	-14.3
172.5	5.8988e-05	3.3131e-09	-10.0	-14.4
173.0	5.8995e-05	3.3693e-09	-10.0	-14.5
173.5	5.9039e-05	3.4261e-09	-10.0	-14.6
174.0	5.9079e-05	3.4819e-09	-10.0	-14.7
174.5	5.9112e-05	3.5412e-09	-10.0	-14.8
175.0	5.9143e-05	3.5949e-09	-10.0	-14.9
175.5	5.9164e-05	3.6533e-09	-10.0	-15.0
176.0	5.9117e-05	3.6026e-09	-10.0	-15.0
176.5	5.9157e-05	3.6823e-09	-10.0	-15.1
177.0	5.9021e-05	3.5326e-09	-10.0	-15.0
177.5	5.8905e-05	3.424e-09	-10.0	-14.9
178.0	5.88e-05	3.3287e-09	-10.0	-14.8
178.5	5.8675e-05	3.2336e-09	-10.0	-14.7
179.0	5.8579e-05	3.1448e-09	-10.0	-14.6
179.5	5.8473e-05	3.0539e-09	-10.0	-14.5
180.0	5.8362e-05	2.9658e-09	-10.0	-14.4
180.5	5.8258e-05	2.8803e-09	-10.0	-14.3
181.0	5.8138e-05	2.7948e-09	-10.0	-14.2
181.5	5.8029e-05	2.7138e-09	-10.0	-14.1
182.0	5.7907e-05	2.6374e-09	-10.0	-14.0
182.5	5.7804e-05	1.9942e-09	-10.0	-13.9
183.0	5.7704e-05	2.4758e-09	-10.0	-13.8
183.5	5.7598e-05	2.3995e-09	-10.0	-13.7
184.0	5.7482e-05	2.3244e-09	-10.0	-13.6
184.5	5.7376e-05	2.2455e-09	-10.0	-13.5
185.0	5.727e-05	2.1686e-09	-10.0	-13.4
185.5	5.7161e-05	2.0928e-09	-10.0	-13.3
186.0	5.7039e-05	2.0156e-09	-10.0	-13.2
186.5	5.6942e-05	1.9408e-09	-10.0	-13.1
187.0	5.6809e-05	1.8635e-09	-10.0	-13.0
187.5	5.6699e-05	1.7876e-09	-10.0	-12.9
188.0	5.658e-05	1.7066e-09	-10.0	-12.8
188.5	5.6464e-05	1.6325e-09	-10.0	-12.7
189.0	5.633e-05	1.5595e-09	-10.0	-12.6
189.5	5.6207e-05	1.4844e-09	-10.0	-12.5
190.0	5.6077e-05	1.4127e-09	-10.0	-12.4
190.5	5.5962e-05	1.3424e-09	-10.0	-12.3
191.0	5.5828e-05	1.2709e-09	-10.0	-12.2
191.5	5.5701e-05	1.2035e-09	-10.0	-12.1
192.0	5.5576e-05	1.1318e-09	-10.0	-12.0
192.5	5.5445e-05	1.0636e-09	-10.0	-11.9
193.0	5.5325e-05	9.9938e-10	-10.0	-11.8
193.5	5.5201e-05	9.3507e-10	-10.0	-11.7
194.0	5.5079e-05	8.6985e-10	-10.0	-11.6
194.5	5.4939e-05	8.0544e-10	-10.0	-11.5
195.0	5.4796e-05	7.4269e-10	-10.0	-11.4
195.5	5.4653e-05	6.8291e-10	-10.0	-11.3
196.0	5.4524e-05	6.2368e-10	-10.0	-11.2
196.5	5.4373e-05	5.6765e-10	-10.0	-11.1
197.0	5.422e-05	5.3877e-10	-10.0	-11.0
197.5	5.4077e-05	1.2806e-10	-10.0	-10.9
198.0	5.3934e-05	4.1011e-10	-10.0	-10.8
198.5	5.3792e-05	3.6984e-10	-10.0	-10.7
199.0	5.3654e-05	3.2802e-10	-10.0	-10.6
199.5	5.3495e-05	2.9038e-10	-10.0	-10.5
200.0	5.3329e-05	2.5491e-10	-10.0	-10.4
200.5	5.3174e-05	2.1452e-10	-10.0	-10.3
201.0	5.3022e-05	1.7794e-10	-10.0	-10.2
201.5	5.2865e-05	1.4228e-10	-10.0	-10.1
202.0	5.2712e-05	1.0502e-10	-10.0	-10.0
202.5	5.2537e-05	7.0553e-11	-10.0	-9.9
203.0	5.2374e-05	3.6522e-11	-10.0	-9.8
203.5	5.2207e-05	4.3988e-13	-10.0	-9.7
204.0	5.2049e-05	3.4949e-11	-10.0	-9.6
204.5	5.1868e-05	7.248e-11	-10.0	-9.5
205.0	5.1692e-05	1.0897e-10	-10.0	-9.4
205.5	5.1526e-05	1.4514e-10	-10.0	-9.3
206.0	5.1344e-05	1.8205e-10	-10.0	-9.2
206.5	5.1164e-05	2.1665e-10	-10.0	-9.1
207.0	5.0993e-05	2.5154e-10	-10.0	-9.0
207.5	5.0804e-05	2.891e-10	-10.0	-8.9
208.0	5.0617e-05	3.2285e-10	-10.0	-8.8
208.5	5.0425e-05	3.5596e-10	-10.0	-8.7
209.0	5.0238e-05	3.8765e-10	-10.0	-8.6
209.5	5.0033e-05	4.1986e-10	-10.0	-8.5
210.0	4.9833e-05	4.5015e-10	-10.0	-8.4
210.5	4.963e-05	4.8056e-10	-10.0	-8.3
211.0	4.9435e-05	5.1037e-10	-10.0	-8.2
211.5	4.9226e-05	5.3816e-10	-10.0	-8.1
212.0	4.9023e-05	5.6473e-10	-10.0	-8.0
212.5	4.8798e-05	9.0538e-10	-10.0	-7.9
213.0	4.8581e-05	6.162e-10	-10.0	-7.8
213.5	4.8362e-05	6.3741e-10	-10.0	-7.7
214.0	4.8143e-05	6.6212e-10	-10.0	-7.6
214.5	4.7921e-05	6.8223e-10	-10.0	-7.5
215.0	4.7688e-05	7.0331e-10	-10.0	-7.4
215.5	4.7463e-05	7.2144e-10	-10.0	-7.3
216.0	4.7219e-05	7.4062e-10	-10.0	-7.2
216.5	4.6989e-05	7.5891e-10	-10.0	-7.1
217.0	4.6748e-05	7.743e-10	-10.0	-7.0
217.5	4.6507e-05	7.905e-10	-10.0	-6.9
218.0	4.6246e-05	8.0332e-10	-10.0	-6.8
218.5	4.6009e-05	8.1424e-10	-10.0	-6.7
219.0	4.5749e-05	8.2878e-10	-10.0	-6.6
219.5	4.5488e-05	8.3803e-10	-10.0	-6.5
220.0	4.5229e-05	8.4796e-10	-10.0	-6.4
220.5	4.4972e-05	8.5802e-10	-10.0	-6.3
221.0	4.47e-05	8.6523e-10	-10.0	-6.2
221.5	4.4436e-05	8.7497e-10	-10.0	-6.1
222.0	4.4172e-05	8.8125e-10	-10.0	-6.0
222.5	4.3887e-05	8.9003e-10	-10.0	-5.9
223.0	4.3614e-05	8.9499e-10	-10.0	-5.8
223.5	4.3341e-05	9.013e-10	-10.0	-5.7
224.0	4.3051e-05	9.0854e-10	-10.0	-5.6
224.5	4.2759e-05	9.1025e-10	-10.0	-5.5
225.0	4.2482e-05	9.1294e-10	-10.0	-5.4
225.5	4.2196e-05	9.1782e-10	-10.0	-5.3
226.0	4.1903e-05	9.1811e-10	-10.0	-5.2
226.5	4.1618e-05	9.2267e-10	-10.0	-5.1
227.0	4.1316e-05	9.2644e-10	-10.0	-5.0
227.5	4.102e-05	9.2495e-10	-10.0	-4.9
228.0	4.0707e-05	1.2426e-09	-10.0	-4.8
228.5	4.0392e-05	9.3209e-10	-10.0	-4.7
229.0	4.0088e-05	9.3166e-10	-10.0	-4.6
229.5	3.9775e-05	9.3626e-10	-10.0	-4.5
230.0	3.9455e-05	9.3532e-10	-10.0	-4.4
230.5	3.9147e-05	9.3708e-10	-10.0	-4.3
231.0	3.8826e-05	9.362e-10	-10.0	-4.2
231.5	3.851e-05	9.3719e-10	-10.0	-4.1
232.0	3.8189e-05	9.363e-10	-10.0	-4.0
232.5	3.7862e-05	9.3597e-10	-10.0	-3.9
233.0	3.7543e-05	9.3864e-10	-10.0	-3.8
233.5	3.7212e-05	9.3811e-10	-10.0	-3.7
234.0	3.6874e-05	9.3791e-10	-10.0	-3.6
234.5	3.654e-05	9.3577e-10	-10.0	-3.5
235.0	3.6212e-05	9.3572e-10	-10.0	-3.4
235.5	3.5874e-05	9.3533e-10	-10.0	-3.3
236.0	3.5541e-05	9.3789e-10	-10.0	-3.2
236.5	3.5193e-05	9.3512e-10	-10.0	-3.1
237.0	3.4853e-05	9.3409e-10	-10.0	-3.0
237.5	3.4511e-05	9.3439e-10	-10.0	-2.9
238.0	3.4158e-05	9.3204e-10	-10.0	-2.8
238.5	3.381e-05	9.3001e-10	-10.0	-2.7
239.0	3.3462e-05	9.2951e-10	-10.0	-2.6
239.5	3.3109e-05	9.3043e-10	-10.0	-2.5
240.0	3.2756e-05	9.2948e-10	-10.0	-2.4
240.5	3.2398e-05	9.274e-10	-10.0	-2.3
241.0	3.2036e-05	9.2425e-10	-10.0	-2.2
241.5	3.1682e-05	9.2526e-10	-10.0	-2.1
242.0	3.1316e-05	9.2115e-10	-10.0	-2.0
242.5	3.0962e-05	9.2016e-10	-10.0	-1.9
243.0	3.0599e-05	1.2438e-09	-10.0	-1.8
243.5	3.0232e-05	9.2029e-10	-10.0	-1.7
244.0	2.9865e-05	9.157e-10	-10.0	-1.6
244.5	2.9497e-05	9.1524e-10	-10.0	-1.5
245.0	2.9125e-05	9.1094e-10	-10.0	-1.4
245.5	2.8757e-05	9.1136e-10	-10.0	-1.3
246.0	2.839e-05	9.1202e-10	-10.0	-1.2
246.5	2.8019e-05	9.1215e-10	-10.0	-1.1
247.0	2.7642e-05	9.0795e-10	-10.0	-1.0
247.5	2.727e-05	9.0832e-10	-10.0	-0.9
248.0	2.6892e-05	9.0469e-10	-10.0	-0.8
248.5	2.6522e-05	9.0368e-10	-10.0	-0.7
249.0	2.6145e-05	9.0218e-10	-10.0	-0.6
249.5	2.5775e-05	9.029e-10	-10.0	-0.5
250.0	2.5393e-05	8.9872e-10	-10.0	-0.4
250.5	2.5019e-05	8.9663e-10	-10.0	-0.3
251.0	2.4648e-05	8.9392e-10	-10.0	-0.2
251.5	2.4267e-05	8.9451e-10	-10.0	-0.1
252.0	2.3884e-05	8.9121e-10	-10.0	-3.6554e-14
252.5	2.3512e-05	8.8969e-10	-10.0	0.1
253.0	2.3132e-05	8.8675e-10	-10.0	0.2
253.5	2.2756e-05	8.8755e-10	-10.0	0.3
254.0	2.2382e-05	8.8179e-10	-10.0	0.4
254.5	2.2005e-05	8.8363e-10	-10.0	0.5
255.0	2.1632e-05	8.8006e-10	-10.0	0.6
255.5	2.1259e-05	8.789e-10	-10.0	0.7
256.0	2.0886e-05	8.7274e-10	-10.0	0.8
256.5	2.0515e-05	8.7295e-10	-10.0	0.9
257.0	2.0141e-05	8.7075e-10	-10.0	1.0
257.5	1.9776e-05	8.6759e-10	-10.0	1.1
258.0	1.9402e-05	1.2441e-09	-10.0	1.2
258.5	1.9041e-05	8.6688e-10	-10.0	1.3
259.0	1.8674e-05	8.6179e-10	-10.0	1.4
259.5	1.8314e-05	8.5918e-10	-10.0	1.5
