#scan;iMeasureCycle=1;iMux=0;time=0.129;N=202;LocalTime=20/12/2023 12:19:24;;;;;
#VGate(V);IGate(A);time(s);VDrain(V);IDrain(A);time(s);;;VGate (V);|IDrain|, |IGate| (A);|IGate| (A)
4.99999;9.29E-10;0.289119;-0.500001;-3.55E-09;0.289119;;;4.99999;3.55403E-09;9.2926E-10
4.89999;8.08E-10;0.465644;-0.500001;-3.91E-09;0.465644;;;4.89999;3.90505E-09;8.0829E-10
4.8;7.49E-10;0.641639;-0.5;-4.32E-09;0.641639;;;4.8;4.31955E-09;7.491E-10
4.69999;7.14E-10;0.836572;-0.500001;-4.77E-09;0.836572;;;4.69999;4.76752E-09;7.1387E-10
4.6;6.94E-10;0.985221;-0.500001;-5.27E-09;0.985221;;;4.6;5.26784E-09;6.9369E-10
4.5;6.80E-10;1.133883;-0.500001;-5.79E-09;1.133883;;;4.5;5.78821E-09;6.8008E-10
4.4;6.69E-10;1.309964;-0.5;-6.30E-09;1.309964;;;4.4;6.29581E-09;6.6945E-10
4.3;6.58E-10;1.493963;-0.500001;-6.90E-09;1.493963;;;4.3;6.89705E-09;6.5788E-10
4.19999;6.50E-10;1.670037;-0.5;-7.53E-09;1.670037;;;4.19999;7.52872E-09;6.5026E-10
4.09999;6.48E-10;1.83927;-0.5;-8.19E-09;1.83927;;;4.09999;8.18886E-09;6.4794E-10
4;6.43E-10;1.987954;-0.5;-8.92E-09;1.987954;;;4;8.91756E-09;6.4327E-10
3.89999;6.37E-10;2.136571;-0.5;-9.67E-09;2.136571;;;3.89999;9.67275E-09;6.3707E-10
3.79999;6.35E-10;2.306672;-0.5;-1.05E-08;2.306672;;;3.79999;1.05307E-08;6.3469E-10
3.7;6.32E-10;2.471374;-0.5;-1.14E-08;2.471374;;;3.7;1.14383E-08;6.3176E-10
3.60001;6.27E-10;2.621142;-0.5;-1.24E-08;2.621142;;;3.60001;1.24261E-08;6.2738E-10
3.49999;6.23E-10;2.771045;-0.499999;-1.35E-08;2.771045;;;3.49999;1.34579E-08;6.2321E-10
3.4;6.18E-10;2.920877;-0.5;-1.46E-08;2.920877;;;3.4;1.45693E-08;6.1817E-10
3.3;6.16E-10;3.070789;-0.5;-1.58E-08;3.070789;;;3.3;1.57887E-08;6.155E-10
3.19999;6.13E-10;3.220568;-0.5;-1.71E-08;3.220568;;;3.19999;1.7065E-08;6.1305E-10
3.09999;6.10E-10;3.384014;-0.499999;-1.84E-08;3.384014;;;3.09999;1.8407E-08;6.096E-10
2.99999;6.09E-10;3.533845;-0.5;-1.99E-08;3.533845;;;2.99999;1.98885E-08;6.0912E-10
2.9;6.06E-10;3.683616;-0.5;-2.15E-08;3.683616;;;2.9;2.14868E-08;6.0617E-10
2.79999;6.05E-10;3.856379;-0.5;-2.32E-08;3.856379;;;2.79999;2.31682E-08;6.053E-10
2.69999;6.04E-10;4.006251;-0.5;-2.50E-08;4.006251;;;2.69999;2.49806E-08;6.0435E-10
2.6;6.04E-10;4.156176;-0.499999;-2.70E-08;4.156176;;;2.6;2.69653E-08;6.0446E-10
2.5;6.02E-10;4.305945;-0.5;-2.92E-08;4.305945;;;2.5;2.9153E-08;6.0223E-10
2.39999;5.96E-10;4.475425;-0.5;-3.16E-08;4.475425;;;2.39999;3.15599E-08;5.9574E-10
2.29999;5.95E-10;4.625201;-0.5;-3.42E-08;4.625201;;;2.29999;3.41723E-08;5.9467E-10
2.2;5.94E-10;4.775027;-0.5;-3.70E-08;4.775027;;;2.2;3.70228E-08;5.9412E-10
2.1;5.89E-10;4.924876;-0.5;-4.01E-08;4.924876;;;2.1;4.00513E-08;5.8927E-10
2;5.91E-10;5.074776;-0.5;-4.32E-08;5.074776;;;2;4.32441E-08;5.9107E-10
1.9;5.86E-10;5.224549;-0.5;-4.67E-08;5.224549;;;1.9;4.66648E-08;5.8638E-10
1.8;5.83E-10;5.384692;-0.499999;-5.03E-08;5.384692;;;1.8;5.03193E-08;5.8296E-10
1.7;5.84E-10;5.534529;-0.5;-5.42E-08;5.534529;;;1.7;5.42307E-08;5.8357E-10
1.59999;5.82E-10;5.684371;-0.5;-5.85E-08;5.684371;;;1.59999;5.85391E-08;5.8235E-10
1.5;5.80E-10;5.858266;-0.499999;-6.33E-08;5.858266;;;1.5;6.33493E-08;5.798E-10
1.39999;5.77E-10;6.008164;-0.5;-6.88E-08;6.008164;;;1.39999;6.8781E-08;5.7688E-10
1.3;5.75E-10;6.157939;-0.5;-7.52E-08;6.157939;;;1.3;7.52142E-08;5.7516E-10
1.2;5.77E-10;6.307798;-0.5;-8.35E-08;6.307798;;;1.2;8.35362E-08;5.7696E-10
1.09999;5.73E-10;6.480346;-0.5;-9.62E-08;6.480346;;;1.09999;9.61956E-08;5.734E-10
1.00001;5.65E-10;6.636017;-0.5;-1.19E-07;6.636017;;;1.00001;1.19064E-07;5.6521E-10
0.9;5.50E-10;6.785898;-0.5;-1.62E-07;6.785898;;;0.9;1.6193E-07;5.4988E-10
0.79999;5.15E-10;6.935758;-0.5;-2.33E-07;6.935758;;;0.79999;2.3254E-07;5.153E-10
0.7;4.43E-10;7.085767;-0.5;-3.31E-07;7.085767;;;0.7;3.31283E-07;4.4251E-10
0.6;3.28E-10;7.235537;-0.5;-4.54E-07;7.235537;;;0.6;4.54089E-07;3.276E-10
0.49999;3.27E-10;7.390361;-0.5;-5.95E-07;7.390361;;;0.49999;5.95364E-07;3.2687E-10
0.4;3.53E-10;7.540245;-0.5;-7.48E-07;7.540245;;;0.4;7.48478E-07;3.5251E-10
0.29999;2.73E-10;7.690057;-0.5;-9.06E-07;7.690057;;;0.29999;9.05621E-07;2.729E-10
0.19999;1.71E-10;7.867313;-0.5;-1.06E-06;7.867313;;;0.19999;1.06262E-06;1.7052E-10
0.1;1.62E-11;8.017161;-0.5;-1.22E-06;8.017161;;;0.1;1.21727E-06;1.618E-11
-1.00E-05;-1.33E-10;8.166943;-0.5;-1.37E-06;8.166943;;;-1.00E-05;1.36997E-06;1.3276E-10
-0.1;-2.22E-10;8.316887;-0.5;-1.52E-06;8.316887;;;-0.1;1.51967E-06;2.2247E-10
-0.20001;-3.07E-10;8.485437;-0.5;-1.67E-06;8.485437;;;-0.20001;1.66575E-06;3.0738E-10
-0.3;-4.27E-10;8.63525;-0.5;-1.81E-06;8.63525;;;-0.3;1.80833E-06;4.2708E-10
-0.40001;-5.69E-10;8.785121;-0.5;-1.95E-06;8.785121;;;-0.40001;1.94722E-06;5.6914E-10
-0.5;-7.28E-10;8.934985;-0.5;-2.08E-06;8.934985;;;-0.5;2.08206E-06;7.2786E-10
-0.60001;-9.06E-10;9.084923;-0.5;-2.21E-06;9.084923;;;-0.60001;2.21336E-06;9.0619E-10
-0.7;-1.10E-09;9.234683;-0.5;-2.34E-06;9.234683;;;-0.7;2.34114E-06;1.09605E-09
-0.80001;-1.32E-09;9.394761;-0.5;-2.47E-06;9.394761;;;-0.80001;2.46626E-06;1.3228E-09
-0.9;-1.55E-09;9.544623;-0.5;-2.59E-06;9.544623;;;-0.9;2.5883E-06;1.55341E-09
-1;-1.77E-09;9.694466;-0.5;-2.71E-06;9.694466;;;-1;2.70681E-06;1.76837E-09
-1.1;-2.00E-09;9.868407;-0.5;-2.82E-06;9.868407;;;-1.1;2.82225E-06;1.99954E-09
-1.2;-2.24E-09;10.018447;-0.5;-2.94E-06;10.018447;;;-1.2;2.93543E-06;2.24239E-09
-1.30001;-2.47E-09;10.168305;-0.5;-3.05E-06;10.168305;;;-1.30001;3.04543E-06;2.4702E-09
-1.4;-2.69E-09;10.318095;-0.5;-3.15E-06;10.318095;;;-1.4;3.15309E-06;2.69203E-09
-1.5;-2.89E-09;10.49045;-0.5;-3.26E-06;10.49045;;;-1.5;3.25751E-06;2.89044E-09
-1.60001;-3.13E-09;10.640268;-0.5;-3.36E-06;10.640268;;;-1.60001;3.35936E-06;3.12955E-09
-1.7;-3.37E-09;10.790087;-0.5;-3.46E-06;10.790087;;;-1.7;3.45798E-06;3.36896E-09
-1.8;-3.58E-09;10.939946;-0.5;-3.56E-06;10.939946;;;-1.8;3.55614E-06;3.57614E-09
-1.9;-3.82E-09;11.089889;-0.5;-3.65E-06;11.089889;;;-1.9;3.65028E-06;3.81671E-09
-2;-4.05E-09;11.239736;-0.5;-3.74E-06;11.239736;;;-2;3.74284E-06;4.05498E-09
-2.10001;-4.29E-09;11.399787;-0.5;-3.83E-06;11.399787;;;-2.10001;3.83281E-06;4.28528E-09
-2.2;-4.55E-09;11.549621;-0.5;-3.92E-06;11.549621;;;-2.2;3.92033E-06;4.54953E-09
-2.3;-4.79E-09;11.699479;-0.5;-4.01E-06;11.699479;;;-2.3;4.00623E-06;4.78705E-09
-2.40001;-5.02E-09;11.87349;-0.5;-4.09E-06;11.87349;;;-2.40001;4.08948E-06;5.01821E-09
-2.50001;-5.29E-09;12.02337;-0.5;-4.17E-06;12.02337;;;-2.50001;4.17118E-06;5.29061E-09
-2.6;-5.53E-09;12.173211;-0.5;-4.25E-06;12.173211;;;-2.6;4.25136E-06;5.53267E-09
-2.7;-5.80E-09;12.322982;-0.5;-4.33E-06;12.322982;;;-2.7;4.32857E-06;5.80145E-09
-2.8;-6.07E-09;12.495391;-0.5;-4.40E-06;12.495391;;;-2.8;4.40444E-06;6.06665E-09
-2.9;-6.36E-09;12.645359;-0.5;-4.48E-06;12.645359;;;-2.9;4.47878E-06;6.36196E-09
-3;-6.63E-09;12.795152;-0.5;-4.55E-06;12.795152;;;-3;4.5507E-06;6.63223E-09
-3.1;-6.90E-09;12.945122;-0.5;-4.62E-06;12.945122;;;-3.1;4.62015E-06;6.89901E-09
-3.20001;-7.20E-09;13.095302;-0.5;-4.69E-06;13.095302;;;-3.20001;4.68926E-06;7.19573E-09
-3.3;-7.49E-09;13.24516;-0.5;-4.76E-06;13.24516;;;-3.3;4.75505E-06;7.48557E-09
-3.4;-7.76E-09;13.40485;-0.5;-4.82E-06;13.40485;;;-3.4;4.8207E-06;7.76449E-09
-3.50001;-8.07E-09;13.55489;-0.5;-4.88E-06;13.55489;;;-3.50001;4.88435E-06;8.06582E-09
-3.6;-8.43E-09;13.704687;-0.5;-4.95E-06;13.704687;;;-3.6;4.94755E-06;8.42799E-09
-3.70001;-8.66E-09;13.879104;-0.5;-5.01E-06;13.879104;;;-3.70001;5.00818E-06;8.66475E-09
-3.80001;-9.02E-09;14.029008;-0.5;-5.07E-06;14.029008;;;-3.80001;5.06846E-06;9.02054E-09
-3.90001;-9.32E-09;14.172947;-0.5;-5.13E-06;14.172947;;;-3.90001;5.12553E-06;9.3175E-09
-4;-9.70E-09;14.316781;-0.5;-5.18E-06;14.316781;;;-4;5.18208E-06;9.6953E-09
-4.10001;-9.98E-09;14.460663;-0.5;-5.24E-06;14.460663;;;-4.10001;5.23545E-06;9.9768E-09
-4.2;-1.03E-08;14.604605;-0.5;-5.29E-06;14.604605;;;-4.2;5.28935E-06;1.03428E-08
-4.3;-1.06E-08;14.74845;-0.5;-5.34E-06;14.74845;;;-4.3;5.34159E-06;1.0649E-08
-4.4;-1.10E-08;14.90278;-0.5;-5.39E-06;14.90278;;;-4.4;5.39202E-06;1.09532E-08
-4.5;-1.13E-08;15.046661;-0.5;-5.44E-06;15.046661;;;-4.5;5.44197E-06;1.12927E-08
-4.6;-1.16E-08;15.190541;-0.5;-5.49E-06;15.190541;;;-4.6;5.49091E-06;1.16461E-08
-4.7;-1.19E-08;15.334391;-0.5;-5.54E-06;15.334391;;;-4.7;5.53902E-06;1.19248E-08
-4.80001;-1.23E-08;15.496862;-0.5;-5.58E-06;15.496862;;;-4.80001;5.58497E-06;1.23046E-08
-4.9;-1.27E-08;15.640718;-0.5;-5.63E-06;15.640718;;;-4.9;5.62861E-06;1.26966E-08
-5;-1.31E-08;15.784693;-0.5;-5.67E-06;15.784693;;;-5;5.67172E-06;1.30733E-08
-5;-1.30E-08;15.908248;-0.5;-5.67E-06;15.908248;;;-5;5.6727E-06;1.30348E-08
-4.9;-1.26E-08;16.052116;-0.5;-5.63E-06;16.052116;;;-4.9;5.62901E-06;1.25598E-08
-4.79999;-1.22E-08;16.196006;-0.5;-5.58E-06;16.196006;;;-4.79999;5.58335E-06;1.22059E-08
-4.7;-1.18E-08;16.339846;-0.5;-5.54E-06;16.339846;;;-4.7;5.53796E-06;1.18048E-08
-4.6;-1.14E-08;16.499289;-0.5;-5.49E-06;16.499289;;;-4.6;5.4897E-06;1.14306E-08
-4.50001;-1.11E-08;16.643147;-0.5;-5.44E-06;16.643147;;;-4.50001;5.44097E-06;1.10774E-08
-4.4;-1.07E-08;16.787033;-0.5;-5.39E-06;16.787033;;;-4.4;5.3905E-06;1.06536E-08
-4.3;-1.03E-08;16.930888;-0.5;-5.34E-06;16.930888;;;-4.3;5.33874E-06;1.03417E-08
-4.2;-9.90E-09;17.074818;-0.5;-5.29E-06;17.074818;;;-4.2;5.28606E-06;9.9049E-09
-4.1;-9.50E-09;17.218629;-0.5;-5.23E-06;17.218629;;;-4.1;5.23311E-06;9.4957E-09
-4.00001;-9.25E-09;17.388142;-0.5;-5.18E-06;17.388142;;;-4.00001;5.17767E-06;9.2497E-09
-3.9;-8.91E-09;17.538051;-0.5;-5.12E-06;17.538051;;;-3.9;5.12112E-06;8.91292E-09
-3.80001;-8.53E-09;17.687908;-0.5;-5.06E-06;17.687908;;;-3.80001;5.06318E-06;8.53021E-09
-3.7;-8.17E-09;17.837746;-0.5;-5.00E-06;17.837746;;;-3.7;5.00332E-06;8.17149E-09
-3.60001;-7.83E-09;18.009059;-0.5;-4.94E-06;18.009059;;;-3.60001;4.94245E-06;7.83368E-09
-3.5;-7.51E-09;18.158883;-0.5;-4.88E-06;18.158883;;;-3.5;0.00000488;7.51342E-09
-3.40001;-7.22E-09;18.308703;-0.5;-4.82E-06;18.308703;;;-3.40001;4.81646E-06;7.22341E-09
-3.3;-6.93E-09;18.45863;-0.5;-4.75E-06;18.45863;;;-3.3;4.75112E-06;6.93436E-09
-3.2;-6.62E-09;18.608963;-0.5;-4.68E-06;18.608963;;;-3.2;4.68349E-06;6.61588E-09
-3.1;-6.32E-09;18.758835;-0.5;-4.61E-06;18.758835;;;-3.1;4.6149E-06;6.31667E-09
-3;-6.05E-09;18.918999;-0.5;-4.55E-06;18.918999;;;-3;4.54507E-06;6.04941E-09
-2.90001;-5.73E-09;19.068943;-0.5;-4.47E-06;19.068943;;;-2.90001;4.47253E-06;5.72534E-09
-2.79999;-5.45E-09;19.21875;-0.5;-4.40E-06;19.21875;;;-2.79999;4.39964E-06;5.44782E-09
-2.70001;-5.18E-09;19.393479;-0.5;-4.32E-06;19.393479;;;-2.70001;4.32257E-06;5.18062E-09
-2.6;-4.88E-09;19.543438;-0.5;-4.25E-06;19.543438;;;-2.6;4.24592E-06;4.88314E-09
-2.50001;-4.63E-09;19.693286;-0.5;-4.17E-06;19.693286;;;-2.50001;4.16546E-06;4.62721E-09
-2.40001;-4.37E-09;19.843185;-0.5;-4.08E-06;19.843185;;;-2.40001;4.08406E-06;4.37062E-09
-2.30001;-4.10E-09;20.01406;-0.5;-4.00E-06;20.01406;;;-2.30001;4.00012E-06;4.09942E-09
-2.2;-3.86E-09;20.163901;-0.5;-3.91E-06;20.163901;;;-2.2;3.91413E-06;3.8637E-09
-2.1;-3.60E-09;20.313751;-0.5;-3.83E-06;20.313751;;;-2.1;3.82568E-06;3.60286E-09
-2.00001;-3.36E-09;20.463623;-0.5;-3.74E-06;20.463623;;;-2.00001;3.73565E-06;3.35539E-09
-1.90001;-3.10E-09;20.614159;-0.5;-3.64E-06;20.614159;;;-1.90001;3.6428E-06;3.10247E-09
-1.80001;-2.86E-09;20.764073;-0.5;-3.55E-06;20.764073;;;-1.80001;3.54805E-06;2.85849E-09
-1.70001;-2.63E-09;20.924157;-0.5;-3.45E-06;20.924157;;;-1.70001;3.45132E-06;2.62729E-09
-1.6;-2.41E-09;21.074103;-0.5;-3.35E-06;21.074103;;;-1.6;3.35164E-06;2.41144E-09
-1.50001;-2.18E-09;21.224027;-0.5;-3.25E-06;21.224027;;;-1.50001;3.24946E-06;2.17793E-09
-1.40001;-1.96E-09;21.399026;-0.5;-3.14E-06;21.399026;;;-1.40001;3.14408E-06;1.95708E-09
-1.30001;-1.73E-09;21.548954;-0.5;-3.04E-06;21.548954;;;-1.30001;3.03668E-06;1.72966E-09
-1.20001;-1.50E-09;21.698748;-0.5;-2.93E-06;21.698748;;;-1.20001;2.92639E-06;1.49714E-09
-1.1;-1.26E-09;21.848624;-0.5;-2.81E-06;21.848624;;;-1.1;2.81344E-06;1.26023E-09
-1;-1.04E-09;22.020108;-0.5;-2.70E-06;22.020108;;;-1;2.69739E-06;1.04062E-09
-0.9;-8.06E-10;22.169947;-0.5;-2.58E-06;22.169947;;;-0.9;2.5794E-06;8.0608E-10
-0.80001;-5.90E-10;22.319822;-0.5;-2.46E-06;22.319822;;;-0.80001;2.45739E-06;5.9013E-10
-0.7;-3.84E-10;22.469675;-0.5;-2.33E-06;22.469675;;;-0.7;2.33239E-06;3.8376E-10
-0.6;-2.04E-10;22.62008;-0.5;-2.20E-06;22.62008;;;-0.6;2.2038E-06;2.0396E-10
-0.5;-2.45E-11;22.769968;-0.5;-2.07E-06;22.769968;;;-0.5;2.07236E-06;2.453E-11
-0.4;1.13E-10;22.930281;-0.5;-1.94E-06;22.930281;;;-0.4;1.93745E-06;1.1325E-10
-0.30001;2.45E-10;23.080226;-0.5;-1.80E-06;23.080226;;;-0.30001;1.79881E-06;2.4457E-10
-0.20001;3.88E-10;23.230146;-0.5;-1.66E-06;23.230146;;;-0.20001;1.65606E-06;3.875E-10
-0.1;4.92E-10;23.404645;-0.5;-1.51E-06;23.404645;;;-0.1;1.50932E-06;4.923E-10
-1.00E-05;6.43E-10;23.554546;-0.5;-1.36E-06;23.554546;;;-1.00E-05;1.35974E-06;6.4283E-10
0.1;7.46E-10;23.704379;-0.5;-1.21E-06;23.704379;;;0.1;1.20735E-06;7.4647E-10
0.19999;8.10E-10;23.854345;-0.5;-1.05E-06;23.854345;;;0.19999;1.05286E-06;8.0953E-10
0.3;8.58E-10;24.025124;-0.5;-8.96E-07;24.025124;;;0.3;8.9628E-07;8.576E-10
0.40001;9.04E-10;24.177785;-0.5;-7.39E-07;24.177785;;;0.40001;7.3868E-07;9.0422E-10
0.5;9.47E-10;24.32762;-0.5;-5.86E-07;24.32762;;;0.5;5.86256E-07;9.4722E-10
0.59999;1.00E-09;24.477469;-0.5;-4.46E-07;24.477469;;;0.59999;4.45622E-07;1.002E-09
0.7;1.03E-09;24.627348;-0.5;-3.24E-07;24.627348;;;0.7;3.23755E-07;1.02812E-09
0.79999;1.01E-09;24.777186;-0.5;-2.26E-07;24.777186;;;0.79999;2.26136E-07;1.0115E-09
0.9;9.78E-10;24.935751;-0.5;-1.57E-07;24.935751;;;0.9;1.56939E-07;9.7818E-10
1;9.52E-10;25.085642;-0.5;-1.16E-07;25.085642;;;1;1.15606E-07;9.5244E-10
1.09999;9.28E-10;25.235419;-0.5;-9.35E-08;25.235419;;;1.09999;9.3473E-08;9.2847E-10
1.2;9.05E-10;25.427783;-0.500001;-8.12E-08;25.427783;;;1.2;8.11778E-08;9.0486E-10
1.3;8.93E-10;25.577647;-0.500001;-7.30E-08;25.577647;;;1.3;7.30081E-08;8.9335E-10
1.4;8.83E-10;25.727499;-0.500001;-6.67E-08;25.727499;;;1.4;6.6656E-08;8.8286E-10
1.5;8.69E-10;25.917201;-0.500001;-6.13E-08;25.917201;;;1.5;6.13117E-08;8.6878E-10
1.59999;8.59E-10;26.067054;-0.500001;-5.66E-08;26.067054;;;1.59999;5.65875E-08;8.5898E-10
1.7;8.52E-10;26.216983;-0.500001;-5.23E-08;26.216983;;;1.7;5.23076E-08;8.5186E-10
1.79999;8.43E-10;26.366873;-0.500001;-4.84E-08;26.366873;;;1.79999;4.83873E-08;8.434E-10
1.9;8.35E-10;26.53151;-0.500001;-4.48E-08;26.53151;;;1.9;4.47789E-08;8.3525E-10
2;8.31E-10;26.681256;-0.5;-4.14E-08;26.681256;;;2;4.13729E-08;8.3078E-10
2.09999;8.25E-10;26.831143;-0.500001;-3.82E-08;26.831143;;;2.09999;3.82032E-08;8.2482E-10
2.2;8.19E-10;26.981123;-0.500001;-3.53E-08;26.981123;;;2.2;3.52561E-08;8.1851E-10
2.29999;8.10E-10;27.132389;-0.500001;-3.26E-08;27.132389;;;2.29999;3.25542E-08;8.1023E-10
2.40001;8.05E-10;27.282228;-0.500001;-3.00E-08;27.282228;;;2.40001;3.00495E-08;8.0489E-10
2.49999;7.98E-10;27.441831;-0.500001;-2.78E-08;27.441831;;;2.49999;2.78039E-08;7.9758E-10
2.59999;7.90E-10;27.591681;-0.500001;-2.57E-08;27.591681;;;2.59999;2.57493E-08;7.904E-10
2.7;7.89E-10;27.741517;-0.500001;-2.38E-08;27.741517;;;2.7;2.38262E-08;7.8885E-10
2.79999;7.81E-10;27.916929;-0.500001;-2.21E-08;27.916929;;;2.79999;2.20916E-08;7.806E-10
2.9;7.78E-10;28.066886;-0.500001;-2.05E-08;28.066886;;;2.9;2.0452E-08;7.7848E-10
2.99999;7.73E-10;28.216771;-0.500001;-1.90E-08;28.216771;;;2.99999;1.89602E-08;7.7338E-10
3.09999;7.68E-10;28.366568;-0.500001;-1.75E-08;28.366568;;;3.09999;1.75485E-08;7.6849E-10
3.2;7.67E-10;28.536486;-0.500001;-1.62E-08;28.536486;;;3.2;1.62075E-08;7.6656E-10
3.29999;7.62E-10;28.686228;-0.500001;-1.50E-08;28.686228;;;3.29999;1.49958E-08;7.6174E-10
3.39999;7.56E-10;28.836132;-0.500001;-1.39E-08;28.836132;;;3.39999;1.38926E-08;7.5552E-10
3.49999;7.55E-10;28.985953;-0.500001;-1.28E-08;28.985953;;;3.49999;1.28293E-08;7.5513E-10
3.59999;7.49E-10;29.137445;-0.500001;-1.18E-08;29.137445;;;3.59999;1.18455E-08;7.488E-10
3.7;7.45E-10;29.287276;-0.500001;-1.10E-08;29.287276;;;3.7;1.09737E-08;7.4534E-10
3.79999;7.45E-10;29.446841;-0.500001;-1.01E-08;29.446841;;;3.79999;1.0132E-08;7.4487E-10
3.89999;7.42E-10;29.596645;-0.500001;-9.39E-09;29.596645;;;3.89999;9.3915E-09;7.4246E-10
3.99999;7.38E-10;29.761388;-0.499999;-8.64E-09;29.761388;;;3.99999;8.64246E-09;7.3787E-10
4.1;7.29E-10;29.976047;-0.500001;-8.00E-09;29.976047;;;4.1;7.99555E-09;7.2864E-10
4.2;7.25E-10;30.152255;-0.500001;-7.35E-09;30.152255;;;4.2;7.35361E-09;7.254E-10
4.29999;7.22E-10;30.328315;-0.5;-6.80E-09;30.328315;;;4.29999;6.79685E-09;7.2225E-10
4.4;7.21E-10;30.504379;-0.5;-6.27E-09;30.504379;;;4.4;6.26783E-09;7.2149E-10
4.5;7.17E-10;30.68044;-0.5;-5.78E-09;30.68044;;;4.5;5.77584E-09;7.1672E-10
4.59999;7.12E-10;30.856552;-0.5;-5.33E-09;30.856552;;;4.59999;5.32776E-09;7.1163E-10
4.69999;7.10E-10;31.032856;-0.500001;-4.91E-09;31.032856;;;4.69999;4.91166E-09;7.0977E-10
4.79999;7.03E-10;31.208902;-0.500001;-4.52E-09;31.208902;;;4.79999;4.51723E-09;7.034E-10
4.9;7.03E-10;31.384944;-0.500001;-4.16E-09;31.384944;;;4.9;4.16167E-09;7.0289E-10
5;7.03E-10;31.570709;-0.500001;-3.82E-09;31.570709;;;5;3.82434E-09;7.0318E-10
