#scan;iMeasureCycle=1;iMux=0;time=0.135;N=142;LocalTime=21/12/2023 11:59:53;;;;;;;;;
#VGate(V);IGate(A);time(s);VDrain(V);IDrain(A);time(s);;;VGate (V);|IDrain|, |IGate| (A);|IGate| (A);|IDrain|^1/2 (A^1/2);;;IDS_off_avg
19.99999;4.76E-09;0.295148;-10;-3.15E-09;0.295148;;;19.99999;3.15E-09;4.76E-09;5.61E-05;;;1.40E-09
19.5;3.36E-09;0.471581;-10;-2.32E-09;0.471581;;;19.5;2.32E-09;3.36E-09;4.82E-05;;;
18.99999;2.67E-09;0.647643;-10.00001;-1.92E-09;0.647643;;;18.99999;1.92E-09;2.67E-09;4.38E-05;;;IDS_max
18.49999;2.25E-09;0.842508;-10.00001;-1.67E-09;0.842508;;;18.49999;1.67E-09;2.25E-09;4.09E-05;;;7.24E-05
18;2.00E-09;1.01861;-10.00001;-1.53E-09;1.01861;;;18;1.53E-09;2.00E-09;3.92E-05;;;
17.5;1.83E-09;1.194644;-10;-1.44E-09;1.194644;;;17.5;1.44E-09;1.83E-09;3.79E-05;;;ON/OFF
17;1.68E-09;1.407977;-10;-1.36E-09;1.407977;;;17;1.36E-09;1.68E-09;3.69E-05;;;5.18E+04
16.49999;1.59E-09;1.584002;-10.00001;-1.31E-09;1.584002;;;16.49999;1.31E-09;1.59E-09;3.61E-05;;;
15.99999;1.51E-09;1.760026;-10;-1.26E-09;1.760026;;;15.99999;1.26E-09;1.51E-09;3.56E-05;;;
15.49999;1.46E-09;1.936082;-10.00001;-1.23E-09;1.936082;;;15.49999;1.23E-09;1.46E-09;3.51E-05;;;
15;1.40E-09;2.112247;-10.00001;-1.21E-09;2.112247;;;15;1.21E-09;1.40E-09;3.48E-05;;;
14.49999;1.36E-09;2.288249;-10;-1.19E-09;2.288249;;;14.49999;1.19E-09;1.36E-09;3.45E-05;;;
14;1.33E-09;2.465041;-10;-1.17E-09;2.465041;;;14;1.17E-09;1.33E-09;3.42E-05;;;
13.5;1.29E-09;2.641023;-10.00001;-1.15E-09;2.641023;;;13.5;1.15E-09;1.29E-09;3.39E-05;;;
12.99999;1.26E-09;2.817442;-10;-1.14E-09;2.817442;;;12.99999;1.14E-09;1.26E-09;3.37E-05;;;
12.49999;1.24E-09;3.0044;-10.00001;-1.11E-09;3.0044;;;12.49999;1.11E-09;1.24E-09;3.34E-05;;;
11.99999;1.20E-09;3.180395;-10.00001;-1.11E-09;3.180395;;;11.99999;1.11E-09;1.20E-09;3.34E-05;;;
11.5;1.16E-09;3.389629;-10;-1.10E-09;3.389629;;;11.5;1.10E-09;1.16E-09;3.32E-05;;;
10.99999;1.13E-09;3.565701;-10.00001;-1.09E-09;3.565701;;;10.99999;1.09E-09;1.13E-09;3.31E-05;;;
10.49999;1.09E-09;3.741764;-10.00001;-1.09E-09;3.741764;;;10.49999;1.09E-09;1.09E-09;3.30E-05;;;
9.99999;1.04E-09;3.917859;-10.00001;-1.08E-09;3.917859;;;9.99999;1.08E-09;1.04E-09;3.29E-05;;;
9.49999;9.55E-10;4.093893;-10;-1.13E-09;4.093893;;;9.49999;1.13E-09;9.55E-10;3.36E-05;;;
8.99999;8.42E-10;4.270002;-10.00001;-1.50E-09;4.270002;;;8.99999;1.50E-09;8.42E-10;3.88E-05;;;
8.5;6.40E-10;4.446135;-10;-3.06E-09;4.446135;;;8.5;3.06E-09;6.40E-10;5.53E-05;;;
7.99999;4.05E-10;4.622225;-10.00001;-7.63E-09;4.622225;;;7.99999;7.63E-09;4.05E-10;8.73E-05;;;
7.5;6.92E-11;4.79236;-10;-1.77E-08;4.79236;;;7.5;1.77E-08;6.92E-11;0.00013317;;;
7;-5.08E-10;4.942207;-10;-3.83E-08;4.942207;;;7;3.83E-08;5.08E-10;0.000195747;;;
6.49999;-1.11E-09;5.092081;-10;-7.76E-08;5.092081;;;6.49999;7.76E-08;1.11E-09;0.000278555;;;
5.99999;-1.53E-09;5.247707;-10;-1.46E-07;5.247707;;;5.99999;1.46E-07;1.53E-09;0.00038158;;;
5.5;-1.72E-09;5.39771;-10;-2.57E-07;5.39771;;;5.5;2.57E-07;1.72E-09;0.00050706;;;
4.99999;-1.55E-09;5.547559;-10;-4.32E-07;5.547559;;;4.99999;4.32E-07;1.55E-09;0.000657447;;;
4.5;-4.09E-10;5.697543;-10;-6.97E-07;5.697543;;;4.5;6.97E-07;4.09E-10;0.000835049;;;
4;5.67E-10;5.871393;-10;-1.07E-06;5.871393;;;4;1.07E-06;5.67E-10;0.001036605;;;
3.49999;6.00E-10;6.021325;-10;-1.60E-06;6.021325;;;3.49999;1.60E-06;6.00E-10;0.001266207;;;
3;6.55E-10;6.17144;-10;-2.32E-06;6.17144;;;3;2.32E-06;6.55E-10;0.001523151;;;
2.49999;7.00E-10;6.321246;-10;-3.28E-06;6.321246;;;2.49999;0.000003275;7.00E-10;0.001809696;;;
1.99999;7.25E-10;6.4881;-10;-4.51E-06;6.4881;;;1.99999;4.51E-06;7.25E-10;0.002123337;;;
1.49999;7.26E-10;6.637933;-10;-6.06E-06;6.637933;;;1.49999;6.06E-06;7.26E-10;0.002462411;;;
0.99999;7.22E-10;6.787923;-10;-7.99E-06;6.787923;;;0.99999;7.99E-06;7.22E-10;0.002826061;;;
0.49999;7.38E-10;6.937734;-10;-1.03E-05;6.937734;;;0.49999;1.03E-05;7.38E-10;0.003208398;;;
-1.00E-05;7.89E-10;7.091517;-10;-1.28E-05;7.091517;;;-1.00E-05;1.28E-05;7.89E-10;0.003582695;;;
-0.5;7.22E-10;7.241293;-10;-1.55E-05;7.241293;;;-0.5;1.55E-05;7.22E-10;0.003935137;;;
-1;6.91E-10;7.415104;-10;-1.82E-05;7.415104;;;-1;1.82E-05;6.91E-10;0.004269157;;;
-1.5;5.66E-10;7.564972;-10;-2.11E-05;7.564972;;;-1.5;2.11E-05;5.66E-10;0.004590359;;;
-2.00001;4.35E-10;7.714746;-10;-2.40E-05;7.714746;;;-2.00001;2.40E-05;4.35E-10;0.004899643;;;
-2.50001;4.34E-10;7.897394;-10;-2.70E-05;7.897394;;;-2.50001;2.70E-05;4.34E-10;0.005194824;;;
-3;3.08E-10;8.047241;-10;-3.00E-05;8.047241;;;-3;3.00E-05;3.08E-10;0.005479389;;;
-3.50001;2.70E-10;8.197381;-10;-3.31E-05;8.197381;;;-3.50001;3.31E-05;2.70E-10;0.005752643;;;
-4.00001;4.21E-10;8.373343;-10;-3.62E-05;8.373343;;;-4.00001;3.62E-05;4.21E-10;0.006013876;;;
-4.5;3.83E-10;8.523179;-10;-3.92E-05;8.523179;;;-4.5;3.92E-05;3.83E-10;0.00626479;;;
-5.00001;4.21E-10;8.673009;-10;-4.23E-05;8.673009;;;-5.00001;4.23E-05;4.21E-10;0.006503653;;;
-5.50001;4.80E-10;8.822881;-10;-4.53E-05;8.822881;;;-5.50001;4.53E-05;4.80E-10;0.006729941;;;
-6.00001;5.28E-10;8.994697;-10;-4.82E-05;8.994697;;;-6.00001;4.82E-05;5.28E-10;0.006943652;;;
-6.50001;5.38E-10;9.144548;-10;-5.11E-05;9.144548;;;-6.50001;5.11E-05;5.38E-10;0.007144977;;;
-7;4.70E-10;9.294517;-10;-5.38E-05;9.294517;;;-7;5.38E-05;4.70E-10;0.007332264;;;
-7.5;3.82E-10;9.444376;-10;-5.63E-05;9.444376;;;-7.5;5.63E-05;3.82E-10;0.007503473;;;
-8;2.60E-10;9.594733;-10;-5.86E-05;9.594733;;;-8;5.86E-05;2.60E-10;0.007657121;;;
-8.5;1.32E-10;9.744577;-10;-6.07E-05;9.744577;;;-8.5;6.07E-05;1.32E-10;0.007791765;;;
-9;-4.29E-11;9.904506;-10;-6.25E-05;9.904506;;;-9;6.25E-05;4.29E-11;0.007907066;;;
-9.50001;-2.61E-10;10.054323;-10;-6.41E-05;10.054323;;;-9.50001;0.000064109;2.61E-10;0.00800681;;;
-10;-5.03E-10;10.204224;-10;-6.55E-05;10.204224;;;-10;6.55E-05;5.03E-10;0.008092422;;;
-10.50001;-7.05E-10;10.378536;-10;-6.67E-05;10.378536;;;-10.50001;6.67E-05;7.05E-10;0.008166541;;;
-11.00001;-1.01E-09;10.528471;-10;-6.77E-05;10.528471;;;-11.00001;6.77E-05;1.01E-09;0.008230522;;;
-11.5;-1.30E-09;10.678306;-10;-6.87E-05;10.678306;;;-11.5;6.87E-05;1.30E-09;0.00828603;;;
-12.00001;-1.66E-09;10.828298;-10;-6.95E-05;10.828298;;;-12.00001;6.95E-05;1.66E-09;0.008334795;;;
-12.50001;-1.97E-09;10.999928;-10;-7.02E-05;10.999928;;;-12.50001;7.02E-05;1.97E-09;0.008376551;;;
-13;-2.36E-09;11.149763;-10;-7.08E-05;11.149763;;;-13;7.08E-05;2.36E-09;0.008412402;;;
-13.50001;-2.73E-09;11.299607;-10;-7.13E-05;11.299607;;;-13.50001;7.13E-05;2.73E-09;0.008444176;;;
-14;-3.17E-09;11.449527;-10;-7.17E-05;11.449527;;;-14;7.17E-05;3.17E-09;0.008470325;;;
-14.5;-3.61E-09;11.600031;-10;-7.21E-05;11.600031;;;-14.5;7.21E-05;3.61E-09;0.008492638;;;
-15.00001;-4.07E-09;11.749898;-10;-7.24E-05;11.749898;;;-15.00001;7.24E-05;4.07E-09;0.008511416;;;
-15.00001;-3.89E-09;11.882373;-10;-7.24E-05;11.882373;;;-15.00001;7.24E-05;3.89E-09;0.008506979;;;
-14.50001;-3.16E-09;12.032323;-10;-7.19E-05;12.032323;;;-14.50001;7.19E-05;3.16E-09;0.008476963;;;
-14;-2.64E-09;12.182193;-10;-7.13E-05;12.182193;;;-14;7.13E-05;2.64E-09;0.008445105;;;
-13.50001;-2.15E-09;12.332127;-10;-7.07E-05;12.332127;;;-13.50001;7.07E-05;2.15E-09;0.008409304;;;
-13;-1.70E-09;12.503768;-10;-7.00E-05;12.503768;;;-13;7.00E-05;1.70E-09;0.008369337;;;
-12.5;-1.31E-09;12.653591;-10;-6.93E-05;12.653591;;;-12.5;6.93E-05;1.31E-09;0.008324056;;;
-12;-9.28E-10;12.803583;-10;-6.84E-05;12.803583;;;-12;0.000068441;9.28E-10;0.008272908;;;
-11.5;-5.56E-10;12.953421;-10;-6.75E-05;12.953421;;;-11.5;6.75E-05;5.56E-10;0.008215114;;;
-11.00001;-2.34E-10;13.103834;-10;-6.64E-05;13.103834;;;-11.00001;6.64E-05;2.34E-10;0.008150945;;;
-10.5;6.20E-11;13.253803;-10;-6.52E-05;13.253803;;;-10.5;0.000065247;6.20E-11;0.008077562;;;
-10.00001;2.63E-10;13.414056;-10;-6.39E-05;13.414056;;;-10.00001;6.39E-05;2.63E-10;0.007993735;;;
-9.50001;5.12E-10;13.56393;-10;-6.24E-05;13.56393;;;-9.50001;6.24E-05;5.12E-10;0.007899354;;;
-9.00001;7.07E-10;13.713759;-10;-6.07E-05;13.713759;;;-9.00001;6.07E-05;7.07E-10;0.007791373;;;
-8.5;8.27E-10;13.888044;-10;-5.88E-05;13.888044;;;-8.5;5.88E-05;8.27E-10;0.007666883;;;
-8.00001;9.91E-10;14.038042;-10;-5.66E-05;14.038042;;;-8.00001;5.66E-05;9.91E-10;0.007523344;;;
-7.5;1.10E-09;14.187902;-10;-5.42E-05;14.187902;;;-7.5;5.42E-05;1.10E-09;0.007361664;;;
-7.00001;1.14E-09;14.337724;-10;-5.16E-05;14.337724;;;-7.00001;5.16E-05;1.14E-09;0.007182263;;;
-6.50001;1.21E-09;14.509046;-10;-4.88E-05;14.509046;;;-6.50001;4.88E-05;1.21E-09;0.006987718;;;
-6.00001;1.25E-09;14.658896;-10;-4.60E-05;14.658896;;;-6.00001;4.60E-05;1.25E-09;0.006779019;;;
-5.50001;1.34E-09;14.808853;-10;-4.30E-05;14.808853;;;-5.50001;4.30E-05;1.34E-09;0.006557797;;;
-5.00001;1.44E-09;14.958699;-10;-4.00E-05;14.958699;;;-5.00001;0.000039997;1.44E-09;0.006324318;;;
-4.5;1.52E-09;15.109066;-10;-3.70E-05;15.109066;;;-4.5;3.70E-05;1.52E-09;0.006079663;;;
-4.00001;1.58E-09;15.258928;-10;-3.39E-05;15.258928;;;-4.00001;3.39E-05;1.58E-09;0.005822353;;;
-3.50001;1.59E-09;15.419339;-10;-3.09E-05;15.419339;;;-3.50001;3.09E-05;1.59E-09;0.005554476;;;
-3;1.64E-09;15.569238;-10;-2.78E-05;15.569238;;;-3;2.78E-05;1.64E-09;0.005275301;;;
-2.50001;1.67E-09;15.719069;-10;-2.49E-05;15.719069;;;-2.50001;2.49E-05;1.67E-09;0.004984987;;;
-2;1.57E-09;15.893799;-10;-2.19E-05;15.893799;;;-2;2.19E-05;1.57E-09;0.004683524;;;
-1.50001;1.56E-09;16.043768;-10;-1.91E-05;16.043768;;;-1.50001;1.91E-05;1.56E-09;0.004369004;;;
-1;1.52E-09;16.193647;-10;-1.63E-05;16.193647;;;-1;1.63E-05;1.52E-09;0.004043427;;;
-0.50001;1.46E-09;16.343477;-10;-1.37E-05;16.343477;;;-0.50001;1.37E-05;1.46E-09;0.003704524;;;
0;1.40E-09;16.514203;-10;-1.12E-05;16.514203;;;0;1.12E-05;1.40E-09;0.003350313;;;
0.5;1.37E-09;16.666627;-10;-8.85E-06;16.666627;;;0.5;8.85E-06;1.37E-09;0.002975344;;;
0.99999;1.36E-09;16.816487;-10;-6.72E-06;16.816487;;;0.99999;6.72E-06;1.36E-09;0.002593218;;;
1.49999;1.36E-09;16.96636;-10;-4.97E-06;16.96636;;;1.49999;4.97E-06;1.36E-09;0.002228809;;;
2;1.34E-09;17.116252;-10;-3.56E-06;17.116252;;;2;3.56E-06;1.34E-09;0.001886089;;;
2.49999;1.34E-09;17.266088;-10;-2.46E-06;17.266088;;;2.49999;2.46E-06;1.34E-09;0.001569242;;;
3.00001;1.34E-09;17.425635;-10;-1.66E-06;17.425635;;;3.00001;1.66E-06;1.34E-09;0.001286616;;;
3.49999;1.41E-09;17.57552;-10;-1.08E-06;17.57552;;;3.49999;1.08E-06;1.41E-09;0.001039235;;;
3.99999;1.55E-09;17.728326;-10;-6.82E-07;17.728326;;;3.99999;6.82E-07;1.55E-09;0.000826077;;;
4.5;1.65E-09;17.900072;-10;-4.16E-07;17.900072;;;4.5;4.16E-07;1.65E-09;0.000645163;;;
4.99999;2.14E-09;18.050006;-10;-2.42E-07;18.050006;;;4.99999;2.42E-07;2.14E-09;0.000492293;;;
5.49999;2.46E-09;18.19991;-10;-1.34E-07;18.19991;;;5.49999;1.34E-07;2.46E-09;0.00036637;;;
5.99999;2.28E-09;18.390812;-9.99999;-7.05E-08;18.390812;;;5.99999;7.05E-08;2.28E-09;0.000265474;;;
6.5;2.49E-09;18.560851;-10;-3.49E-08;18.560851;;;6.5;3.49E-08;2.49E-09;0.000186842;;;
6.99999;2.50E-09;18.730928;-10;-1.65E-08;18.730928;;;6.99999;1.65E-08;2.50E-09;0.000128641;;;
7.5;2.28E-09;18.932261;-10.00001;-7.62E-09;18.932261;;;7.5;7.62E-09;2.28E-09;8.73E-05;;;
8;2.22E-09;19.108261;-10.00001;-3.46E-09;19.108261;;;8;3.46E-09;2.22E-09;5.89E-05;;;
8.5;2.11E-09;19.284226;-10;-1.87E-09;19.284226;;;8.5;1.87E-09;2.11E-09;4.32E-05;;;
9;2.00E-09;19.460308;-10;-1.40E-09;19.460308;;;9;1.40E-09;2.00E-09;3.75E-05;;;
9.5;1.89E-09;19.636544;-10;-1.28E-09;19.636544;;;9.5;1.28E-09;1.89E-09;3.58E-05;;;
10;1.79E-09;19.812618;-10.00001;-1.23E-09;19.812618;;;10;1.23E-09;1.79E-09;3.51E-05;;;
10.5;1.71E-09;19.988684;-10.00001;-1.20E-09;19.988684;;;10.5;1.20E-09;1.71E-09;3.47E-05;;;
11;1.62E-09;20.164831;-10.00001;-1.18E-09;20.164831;;;11;1.18E-09;1.62E-09;3.43E-05;;;
11.5;1.56E-09;20.34091;-10.00001;-1.16E-09;20.34091;;;11.5;1.16E-09;1.56E-09;3.40E-05;;;
12;1.50E-09;20.519609;-10;-1.14E-09;20.519609;;;12;1.14E-09;1.50E-09;3.38E-05;;;
12.49999;1.45E-09;20.695563;-10.00001;-1.12E-09;20.695563;;;12.49999;1.12E-09;1.45E-09;3.35E-05;;;
13;1.41E-09;20.871646;-10;-1.11E-09;20.871646;;;13;1.11E-09;1.41E-09;3.33E-05;;;
13.49999;1.37E-09;21.053162;-10.00001;-1.10E-09;21.053162;;;13.49999;1.10E-09;1.37E-09;3.32E-05;;;
14;1.34E-09;21.229166;-10;-1.09E-09;21.229166;;;14;1.09E-09;1.34E-09;3.30E-05;;;
14.49999;1.31E-09;21.434975;-10.00001;-1.08E-09;21.434975;;;14.49999;1.08E-09;1.31E-09;3.29E-05;;;
15;1.29E-09;21.61107;-10;-1.08E-09;21.61107;;;15;1.08E-09;1.29E-09;3.28E-05;;;
15.5;1.27E-09;21.787129;-10.00001;-1.07E-09;21.787129;;;15.5;1.07E-09;1.27E-09;3.27E-05;;;
16;1.25E-09;21.96919;-10;-1.06E-09;21.96919;;;16;1.06E-09;1.25E-09;3.26E-05;;;
16.49999;1.23E-09;22.145246;-10.00001;-1.06E-09;22.145246;;;16.49999;1.06E-09;1.23E-09;3.25E-05;;;
16.99999;1.22E-09;22.321242;-10.00001;-1.06E-09;22.321242;;;16.99999;1.06E-09;1.22E-09;3.25E-05;;;
17.49999;1.21E-09;22.497434;-10;-1.05E-09;22.497434;;;17.49999;1.05E-09;1.21E-09;3.24E-05;;;
18;1.20E-09;22.673579;-10;-1.05E-09;22.673579;;;18;1.05E-09;1.20E-09;3.24E-05;;;
18.5;1.19E-09;22.849677;-10;-1.04E-09;22.849677;;;18.5;1.04E-09;1.19E-09;3.23E-05;;;
18.99999;1.18E-09;23.028282;-10.00001;-1.04E-09;23.028282;;;18.99999;1.04E-09;1.18E-09;3.23E-05;;;
19.5;1.17E-09;23.204331;-10;-1.04E-09;23.204331;;;19.5;1.04E-09;1.17E-09;3.23E-05;;;
19.99999;1.16E-09;23.404652;-10.00001;-1.03E-09;23.404652;;;19.99999;1.03E-09;1.16E-09;3.21E-05;;;
