#scan;iMeasureCycle=1;iMux=0;time=0.137;N=324;LocalTime=27/10/2023 11:34:55
#VGate(V);IGate(A);time(s);VDrain(V);IDrain(A);time(s)
-60.0001;-7.71E-09;0.297841;0.999999;2.37E-11;0.297841
-59.5;-6.75E-09;0.474719;0.999999;1.25E-11;0.474719
-59;-6.15E-09;0.651471;1;1.18E-11;0.651471
-58.5;-5.65E-09;0.845297;0.999999;9.82E-12;0.845297
-58.0001;-5.29E-09;1.021953;0.999999;9.88E-12;1.021953
-57.5;-4.98E-09;1.198623;0.999999;3.93E-12;1.198623
-57;-4.72E-09;1.411796;1;5.96E-12;1.411796
-56.5;-4.48E-09;1.58851;0.999999;2.79E-12;1.58851
-56.0001;-4.31E-09;1.765134;0.999999;6.69E-12;1.765134
-55.5;-4.13E-09;1.941668;1;1.74E-12;1.941668
-55;-3.99E-09;2.118224;0.999999;5.10E-12;2.118224
-54.5;-3.86E-09;2.294942;0.999999;6.54E-12;2.294942
-54;-3.72E-09;2.473253;0.999999;4.19E-12;2.473253
-53.5;-3.60E-09;2.649877;1;1.86E-12;2.649877
-53;-3.50E-09;2.852124;0.999999;1.18E-12;2.852124
-52.5;-3.39E-09;3.028689;0.999999;2.51E-12;3.028689
-52.0001;-3.29E-09;3.205451;0.999999;8.90E-13;3.205451
-51.5;-3.21E-09;3.419889;0.999999;1.79E-12;3.419889
-51.0001;-3.11E-09;3.596598;1;3.50E-13;3.596598
-50.5;-3.02E-09;3.773097;1;5.90E-13;3.773097
-50;-2.95E-09;3.951708;1;4.42E-12;3.951708
-49.5001;-2.86E-09;4.128308;0.999999;-1.84E-12;4.128308
-49.0001;-2.80E-09;4.304921;1;2.95E-12;4.304921
-48.5;-2.73E-09;4.483361;0.999999;4.19E-12;4.483361
-48.0001;-2.65E-09;4.659976;0.999999;-2.30E-13;4.659976
-47.5;-2.59E-09;4.8578;0.999999;-6.70E-13;4.8578
-47;-2.53E-09;5.034309;0.999999;3.70E-13;5.034309
-46.5001;-2.46E-09;5.210792;0.999999;-1.58E-12;5.210792
-46;-2.42E-09;5.419582;0.999999;1.10E-12;5.419582
-45.5;-2.35E-09;5.596154;0.999999;-1.15E-12;5.596154
-45.0001;-2.29E-09;5.772725;1.000001;3.80E-13;5.772725
-44.5;-2.22E-09;5.949162;1;-2.46E-12;5.949162
-44;-2.18E-09;6.125573;0.999999;3.14E-12;6.125573
-43.5;-2.12E-09;6.302218;1;-4.00E-13;6.302218
-43;-2.06E-09;6.478666;0.999999;-3.13E-12;6.478666
-42.5001;-2.01E-09;6.655072;0.999999;-8.70E-13;6.655072
-42.0001;-1.97E-09;6.831688;0.999999;1.11E-12;6.831688
-41.5001;-1.92E-09;7.019003;1;-4.00E-14;7.019003
-41;-1.86E-09;7.19547;1;-3.77E-12;7.19547
-40.5001;-1.83E-09;7.40346;0.999999;-3.03E-12;7.40346
-40;-1.78E-09;7.579972;1;-1.54E-12;7.579972
-39.5;-1.73E-09;7.756472;0.999999;3.80E-13;7.756472
-39.0001;-1.68E-09;7.933539;0.999999;-1.49E-12;7.933539
-38.5001;-1.64E-09;8.109955;0.999999;-6.20E-13;8.109955
-38.0001;-1.59E-09;8.286414;1;-2.87E-12;8.286414
-37.5001;-1.55E-09;8.464603;0.999999;-7.80E-13;8.464603
-37;-1.51E-09;8.640976;0.999999;7.10E-13;8.640976
-36.5;-1.46E-09;8.817411;1;-1.35E-12;8.817411
-36;-1.41E-09;8.995691;0.999999;-2.77E-12;8.995691
-35.5;-1.37E-09;9.172055;0.999999;-1.92E-12;9.172055
-35;-1.34E-09;9.369814;1;-2.35E-12;9.369814
-34.5001;-1.30E-09;9.546188;0.999999;-1.32E-12;9.546188
-34;-1.25E-09;9.722522;1;-4.26E-12;9.722522
-33.5001;-1.24E-09;9.935968;0.999999;-4.40E-13;9.935968
-33;-1.18E-09;10.112244;1;-2.91E-12;10.112244
-32.5;-1.14E-09;10.288733;1;-2.40E-13;10.288733
-32;-1.11E-09;10.465096;1;1.20E-13;10.465096
-31.5001;-1.06E-09;10.641503;0.999999;-1.93E-12;10.641503
-31;-1.02E-09;10.817683;1.000001;-2.39E-12;10.817683
-30.5001;-9.85E-10;10.99426;0.999999;-1.57E-12;10.99426
-30;-9.43E-10;11.170596;0.999999;-3.62E-12;11.170596
-29.5001;-9.09E-10;11.346873;0.999999;-2.07E-12;11.346873
-29.0001;-8.82E-10;11.531909;0.999999;1.10E-13;11.531909
-28.5;-8.39E-10;11.708332;1;-2.66E-12;11.708332
-28.0001;-8.18E-10;11.916766;1;-3.01E-12;11.916766
-27.5001;-7.85E-10;12.093067;1;9.00E-13;12.093067
-27.0001;-7.34E-10;12.269551;0.999999;-5.31E-12;12.269551
-26.5001;-7.06E-10;12.446818;0.999999;-1.80E-12;12.446818
-26.0001;-6.72E-10;12.623098;0.999999;-2.00E-12;12.623098
-25.5;-6.47E-10;12.799446;0.999999;1.96E-12;12.799446
-25.0001;-6.07E-10;12.975767;1;-9.90E-13;12.975767
-24.5001;-5.66E-10;13.152024;1;-3.57E-12;13.152024
-24.0001;-5.37E-10;13.328384;1;-2.47E-12;13.328384
-23.5001;-5.12E-10;13.506668;0.999999;-2.10E-13;13.506668
-23;-4.80E-10;13.683061;1;-7.00E-14;13.683061
-22.5001;-4.56E-10;13.883851;0.999999;-2.02E-12;13.883851
-22;-4.20E-10;14.060366;0.999999;-1.64E-12;14.060366
-21.5;-3.85E-10;14.236597;0.999999;-1.27E-12;14.236597
-21.0001;-3.72E-10;14.449945;1;-2.95E-12;14.449945
-20.5001;-3.37E-10;14.626128;0.999999;-8.70E-13;14.626128
-20;-2.99E-10;14.802179;1;-2.03E-12;14.802179
-19.5;-2.66E-10;14.97838;1.000001;-3.45E-12;14.97838
-19.0001;-2.35E-10;15.154551;1;-4.81E-12;15.154551
-18.5;-2.12E-10;15.330656;1;-1.59E-12;15.330656
-18.0001;-1.79E-10;15.506776;1;-3.38E-12;15.506776
-17.5;-1.51E-10;15.683016;1;-3.95E-12;15.683016
-17;-1.22E-10;15.859086;0.999999;-4.32E-12;15.859086
-16.5;-1.01E-10;16.045611;1;-2.87E-12;16.045611
-16;-7.70E-11;16.221875;0.999999;-1.69E-12;16.221875
-15.5;-6.68E-11;16.426762;0.999999;-1.21E-12;16.426762
-15.0001;-3.78E-11;16.603009;1;-8.00E-14;16.603009
-14.5001;-2.09E-12;16.779069;1;-3.16E-12;16.779069
-14;2.26E-11;16.961181;0.999999;-4.37E-12;16.961181
-13.5001;4.52E-11;17.137261;0.999999;-2.72E-12;17.137261
-13.0001;7.01E-11;17.313329;0.999999;-2.87E-12;17.313329
-12.5;9.50E-11;17.489372;0.999999;-3.60E-12;17.489372
-12;1.14E-10;17.665606;0.999999;-2.09E-12;17.665606
-11.5001;1.40E-10;17.841776;1;-3.34E-12;17.841776
-11;1.63E-10;18.019714;0.999999;-3.65E-12;18.019714
-10.5001;1.82E-10;18.195843;1;-3.53E-12;18.195843
-10.0001;1.93E-10;18.396848;0.999999;-3.59E-12;18.396848
-9.5001;2.21E-10;18.57316;1;-3.87E-12;18.57316
-9;2.44E-10;18.749417;1;-3.64E-12;18.749417
-8.5001;2.45E-10;18.95865;0.999999;-1.51E-12;18.95865
-8.0001;2.82E-10;19.134758;0.999999;-5.69E-12;19.134758
-7.5001;3.01E-10;19.310869;0.999999;-3.80E-12;19.310869
-7;3.19E-10;19.486998;0.999999;-1.71E-12;19.486998
-6.5;3.43E-10;19.663161;1;-2.77E-12;19.663161
-6;3.66E-10;19.839164;0.999999;-3.27E-12;19.839164
-5.5001;3.86E-10;20.016002;0.999999;-3.37E-12;20.016002
-5.0001;4.07E-10;20.192115;0.999999;-3.36E-12;20.192115
-4.5;4.31E-10;20.368264;0.999999;-4.44E-12;20.368264
-4;4.35E-10;20.558592;1;5.90E-13;20.558592
-3.5;4.68E-10;20.734687;1;-4.07E-12;20.734687
-3.0001;4.69E-10;20.94413;1.000001;-3.18E-12;20.94413
-2.5;4.96E-10;21.120282;0.999999;-3.17E-12;21.120282
-2;5.18E-10;21.296501;1;-2.63E-12;21.296501
-1.5;5.47E-10;21.472682;1;-4.59E-12;21.472682
-1.0001;5.65E-10;21.648895;0.999999;-2.06E-12;21.648895
-0.5001;5.89E-10;21.825013;0.999999;-2.69E-12;21.825013
0;6.15E-10;22.001166;0.999999;-3.92E-12;22.001166
0.4999;6.32E-10;22.177374;0.999999;-2.76E-12;22.177374
0.9999;6.53E-10;22.35346;0.999999;-2.64E-12;22.35346
1.5;6.79E-10;22.529677;0.999999;-3.06E-12;22.529677
2;7.05E-10;22.705883;0.999999;-4.46E-12;22.705883
2.5;7.32E-10;22.881971;1;-5.72E-12;22.881971
2.9999;7.49E-10;23.065922;0.999999;-3.79E-12;23.065922
3.5;7.71E-10;23.242016;0.999999;-2.79E-12;23.242016
4;7.83E-10;23.451264;0.999999;-3.52E-12;23.451264
4.4999;8.13E-10;23.627496;0.999999;-3.72E-12;23.627496
5;8.37E-10;23.803764;0.999999;-3.60E-12;23.803764
5.5;8.60E-10;23.980104;0.999999;-2.74E-12;23.980104
5.9999;9.08E-10;24.156182;0.999999;-4.23E-12;24.156182
6.5;9.32E-10;24.332351;0.999999;-3.26E-12;24.332351
7;9.47E-10;24.508698;0.999999;-4.50E-13;24.508698
7.4999;9.73E-10;24.684832;1;-3.21E-12;24.684832
8;9.90E-10;24.860865;0.999999;-8.00E-13;24.860865
8.5;1.02E-09;25.039557;0.999999;-3.84E-12;25.039557
9;1.04E-09;25.215767;0.999999;-7.20E-13;25.215767
9.5;1.07E-09;25.39183;0.999999;-4.24E-12;25.39183
10;1.09E-09;25.573144;0.999999;-2.78E-12;25.573144
10.5;1.12E-09;25.749352;1;-2.82E-12;25.749352
10.9999;1.11E-09;25.958925;0.999999;-1.76E-12;25.958925
11.5;1.15E-09;26.134975;0.999999;-2.51E-12;26.134975
12;1.17E-09;26.311151;1.000001;-1.94E-12;26.311151
12.4999;1.20E-09;26.488869;0.999999;-6.85E-12;26.488869
13;1.22E-09;26.664965;1;-2.52E-12;26.664965
13.5001;1.24E-09;26.841028;0.999999;-3.04E-12;26.841028
13.9999;1.27E-09;27.017313;1;-1.93E-12;27.017313
14.4999;1.29E-09;27.193373;0.999999;-3.36E-12;27.193373
14.9999;1.31E-09;27.369557;0.999999;-3.43E-12;27.369557
15.4999;1.34E-09;27.545663;0.999999;-3.71E-12;27.545663
16;1.36E-09;27.72191;1;-4.58E-12;27.72191
16.4999;1.38E-09;27.897961;0.999999;-2.31E-12;27.897961
16.9999;1.41E-09;28.080496;1;-4.65E-12;28.080496
17.5;1.43E-09;28.256606;0.999999;-4.02E-12;28.256606
18;1.43E-09;28.462324;0.999999;-8.80E-13;28.462324
18.4999;1.46E-09;28.638558;1;-3.15E-12;28.638558
19;1.49E-09;28.814644;0.999999;-1.81E-12;28.814644
19.4999;1.52E-09;28.992051;1;-6.57E-12;28.992051
19.9999;1.54E-09;29.168188;1;-4.70E-12;29.168188
20.4999;1.56E-09;29.344252;0.999999;-3.86E-12;29.344252
20.9999;1.58E-09;29.52029;1;-4.58E-12;29.52029
21.5;1.60E-09;29.696682;0.999999;-2.66E-12;29.696682
21.9999;1.63E-09;29.872803;1.000001;-5.28E-12;29.872803
22.5;1.65E-09;30.049299;1;-5.34E-12;30.049299
22.9999;1.67E-09;30.225602;1;-4.18E-12;30.225602
23.4999;1.68E-09;30.401917;0.999999;-2.31E-12;30.401917
24;1.70E-09;30.588134;0.999999;-2.66E-12;30.588134
24.4999;1.73E-09;30.764393;0.999999;-4.65E-12;30.764393
25;1.73E-09;30.970241;0.999999;-3.57E-12;30.970241
25.5;1.75E-09;31.146537;0.999999;-4.15E-12;31.146537
26;1.78E-09;31.322926;0.999999;-4.08E-12;31.322926
26.4999;1.80E-09;31.499208;0.999999;-5.08E-12;31.499208
26.9999;1.82E-09;31.675536;1;-4.36E-12;31.675536
27.5;1.85E-09;31.851772;1;-4.88E-12;31.851772
28;1.87E-09;32.028081;0.999999;-6.13E-12;32.028081
28.4999;1.89E-09;32.204449;0.999999;-2.91E-12;32.204449
28.9999;1.91E-09;32.380658;1;-3.54E-12;32.380658
29.5;1.93E-09;32.556999;0.999999;-4.21E-12;32.556999
30;1.95E-09;32.733391;1;-4.08E-12;32.733391
30.4999;1.98E-09;32.909636;0.999999;-3.31E-12;32.909636
30.9999;1.99E-09;33.095351;0.999999;-4.50E-12;33.095351
31.5;2.02E-09;33.271652;0.999999;-3.62E-12;33.271652
31.9999;2.02E-09;33.476906;0.999999;-2.67E-12;33.476906
32.5;2.05E-09;33.653368;0.999999;-3.94E-12;33.653368
32.9999;2.07E-09;33.829714;1;-4.38E-12;33.829714
33.5;2.09E-09;34.011345;1;-4.34E-12;34.011345
33.9999;2.11E-09;34.187672;0.999999;-2.10E-12;34.187672
34.5;2.14E-09;34.364082;1;-5.20E-12;34.364082
35;2.16E-09;34.542061;1;-4.02E-12;34.542061
35.5;2.18E-09;34.718519;0.999999;-3.59E-12;34.718519
36;2.20E-09;34.894867;0.999999;-7.05E-12;34.894867
36.4999;2.22E-09;35.073245;0.999999;-4.37E-12;35.073245
36.9999;2.24E-09;35.249556;0.999999;-4.24E-12;35.249556
37.5;2.25E-09;35.446297;1;-3.04E-12;35.446297
38;2.28E-09;35.622678;0.999999;-5.83E-12;35.622678
38.5;2.30E-09;35.799222;1;-6.14E-12;35.799222
38.9999;2.30E-09;36.013277;0.999999;-5.90E-12;36.013277
39.5;2.32E-09;36.189617;1;-2.33E-12;36.189617
40;2.35E-09;36.366184;0.999999;-4.95E-12;36.366184
40.4999;2.37E-09;36.54258;1.000001;-4.80E-12;36.54258
41;2.39E-09;36.719112;0.999999;-2.92E-12;36.719112
41.5;2.41E-09;36.895633;1;-1.11E-12;36.895633
42;2.43E-09;37.072177;1;-3.41E-12;37.072177
42.4999;2.46E-09;37.248632;0.999999;-5.25E-12;37.248632
42.9999;2.48E-09;37.425184;1;-7.09E-12;37.425184
43.4999;2.49E-09;37.608611;0.999999;-4.65E-12;37.608611
44;2.51E-09;37.785084;1;-3.52E-12;37.785084
44.5;2.52E-09;37.99003;0.999999;-3.16E-12;37.99003
45;2.54E-09;38.166447;0.999999;-3.08E-12;38.166447
45.5;2.56E-09;38.343143;1;-3.15E-12;38.343143
45.9999;2.58E-09;38.520334;1;-6.30E-12;38.520334
46.4999;2.60E-09;38.69687;1.000001;-5.10E-12;38.69687
46.9999;2.63E-09;38.873397;0.999999;-6.50E-12;38.873397
47.4999;2.65E-09;39.049891;0.999999;-6.10E-12;39.049891
47.9999;2.68E-09;39.226355;0.999999;-3.33E-12;39.226355
48.5;2.70E-09;39.402918;1;-5.30E-12;39.402918
48.9999;2.73E-09;39.581976;0.999999;-6.28E-12;39.581976
49.4999;2.74E-09;39.758536;0.999999;-4.99E-12;39.758536
49.9999;2.75E-09;39.95944;1;-5.72E-12;39.95944
50.4999;2.77E-09;40.13599;0.999999;-3.96E-12;40.13599
51;2.79E-09;40.31252;0.999999;-6.16E-12;40.31252
51.4999;2.80E-09;40.522903;0.999999;-5.66E-12;40.522903
52;2.82E-09;40.699521;1;-4.14E-12;40.699521
52.5;2.85E-09;40.875987;0.999999;-5.18E-12;40.875987
53;2.87E-09;41.052638;1;-6.01E-12;41.052638
53.5;2.88E-09;41.22918;1;-4.78E-12;41.22918
54;2.90E-09;41.405784;0.999999;-5.86E-12;41.405784
54.5;2.92E-09;41.582799;0.999999;-4.63E-12;41.582799
55;2.94E-09;41.759461;0.999999;-6.58E-12;41.759461
55.4999;2.96E-09;41.935931;0.999999;-5.33E-12;41.935931
55.9999;2.98E-09;42.121734;1;-4.27E-12;42.121734
56.5;3.00E-09;42.298362;0.999999;-3.30E-12;42.298362
56.9999;3.01E-09;42.503308;1;-9.17E-12;42.503308
57.5;3.04E-09;42.680028;1;-8.33E-12;42.680028
58;3.06E-09;42.85661;1;-6.96E-12;42.85661
58.5;3.08E-09;43.037926;1;-8.84E-12;43.037926
58.9999;3.11E-09;43.214531;1;-5.88E-12;43.214531
59.4999;3.13E-09;43.391132;0.999999;-5.08E-12;43.391132
60;3.15E-09;43.569293;1;-7.86E-12;43.569293
60;3.10E-09;43.690567;1;-6.07E-12;43.690567
59.5;2.94E-09;43.867197;1;-4.59E-12;43.867197
59;2.83E-09;44.043848;1;-3.33E-12;44.043848
58.5;2.74E-09;44.220446;0.999999;-1.38E-12;44.220446
57.9999;2.66E-09;44.397012;1;-3.99E-12;44.397012
57.4999;2.57E-09;44.573659;0.999999;-4.90E-13;44.573659
57;2.49E-09;44.750254;0.999999;9.90E-13;44.750254
56.5;2.43E-09;44.926881;1;-9.50E-13;44.926881
55.9999;2.37E-09;45.105334;1;-4.01E-12;45.105334
55.5;2.31E-09;45.281944;0.999999;-2.28E-12;45.281944
54.9999;2.26E-09;45.475286;0.999999;-4.52E-12;45.475286
54.4999;2.20E-09;45.651994;0.999999;-5.04E-12;45.651994
54;2.14E-09;45.828734;0.999999;5.00E-14;45.828734
53.5;2.11E-09;46.038999;0.999999;-1.84E-12;46.038999
53;2.05E-09;46.21565;0.999999;-8.70E-13;46.21565
52.4999;2.00E-09;46.392185;1.000001;-1.07E-12;46.392185
52;1.95E-09;46.568734;1;1.11E-12;46.568734
51.4999;1.90E-09;46.745339;0.999999;-9.00E-14;46.745339
51;1.86E-09;46.921807;0.999999;5.00E-13;46.921807
50.5;1.82E-09;47.098711;1;1.20E-13;47.098711
49.9999;1.78E-09;47.275231;1;-4.20E-13;47.275231
49.5;1.74E-09;47.451733;1;-7.00E-14;47.451733
48.9999;1.70E-09;47.637564;0.999999;9.00E-13;47.637564
48.5;1.67E-09;47.814092;0.999999;-4.00E-14;47.814092
48;1.63E-09;48.023982;0.999999;1.15E-12;48.023982
47.5;1.60E-09;48.20043;0.999999;-1.74E-12;48.20043
47;1.55E-09;48.376985;1;0;48.376985
46.4999;1.51E-09;48.553659;0.999999;3.00E-14;48.553659
45.9999;1.48E-09;48.730125;1;-5.90E-13;48.730125
45.4999;1.44E-09;48.906634;1;6.70E-13;48.906634
45;1.41E-09;49.085152;0.999999;8.00E-13;49.085152
44.5;1.37E-09;49.261594;1;1.44E-12;49.261594
43.9999;1.33E-09;49.438192;0.999999;2.16E-12;49.438192
43.4999;1.31E-09;49.616496;1;2.00E-14;49.616496
42.9999;1.28E-09;49.793117;1;-3.49E-12;49.793117
42.4999;1.26E-09;49.988338;1;-2.48E-12;49.988338
42;1.21E-09;50.164886;0.999999;1.11E-12;50.164886
41.4999;1.18E-09;50.34138;1.000001;5.40E-13;50.34138
41;1.17E-09;50.55601;1;-7.90E-13;50.55601
40.4999;1.12E-09;50.732543;0.999999;1.14E-12;50.732543
40;1.09E-09;50.908801;1;7.80E-13;50.908801
39.5;1.05E-09;51.085155;1;3.14E-12;51.085155
38.9999;1.03E-09;51.261601;0.999999;1.31E-12;51.261601
38.5;9.97E-10;51.437912;1;6.80E-13;51.437912
38;9.67E-10;51.614376;1;2.99E-12;51.614376
37.5;9.36E-10;51.790794;1;1.41E-12;51.790794
36.9999;9.10E-10;51.967166;0.999999;-1.36E-12;51.967166
36.4999;8.71E-10;52.150624;0.999999;3.84E-12;52.150624
35.9999;8.44E-10;52.326991;0.999999;2.66E-12;52.326991
35.4999;8.33E-10;52.532803;0.999999;5.60E-13;52.532803
34.9999;7.91E-10;52.709175;1;3.60E-13;52.709175
34.4999;7.55E-10;52.885476;0.999999;2.70E-12;52.885476
33.9999;7.23E-10;53.062714;0.999999;4.60E-12;53.062714
33.5;7.06E-10;53.239011;1;5.40E-13;53.239011
32.9999;6.70E-10;53.415415;0.999999;2.20E-12;53.415415
32.4999;6.55E-10;53.591744;1.000001;-4.95E-12;53.591744
31.9999;6.22E-10;53.768154;1.000001;8.00E-13;53.768154
31.4999;5.91E-10;53.944399;0.999999;3.97E-12;53.944399
31;5.69E-10;54.12093;1;2.69E-12;54.12093
30.5;5.44E-10;54.297295;1;4.17E-12;54.297295
30;5.21E-10;54.473596;1;2.82E-12;54.473596
29.5;4.95E-10;54.657639;0.999999;3.12E-12;54.657639
29;4.72E-10;54.833927;0.999999;1.70E-12;54.833927
28.5;4.67E-10;55.060583;0.999999;1.91E-12;55.060583
27.9999;4.34E-10;55.236791;1;1.80E-12;55.236791
27.5;4.09E-10;55.413261;1;5.10E-13;55.413261
26.9999;3.87E-10;55.58959;1;-5.10E-13;55.58959
26.5;3.62E-10;55.765901;0.999999;-4.00E-14;55.765901
26;3.39E-10;55.942108;1;-8.40E-13;55.942108
25.5;3.10E-10;56.118355;1;1.21E-12;56.118355
24.9999;2.82E-10;56.294621;0.999999;3.49E-12;56.294621
24.5;2.64E-10;56.471006;0.999999;7.10E-13;56.471006
24;2.44E-10;56.664332;1;1.18E-12;56.664332
23.5;2.17E-10;56.84075;0.999999;3.04E-12;56.84075
22.9999;2.10E-10;57.04582;1;2.20E-13;57.04582
22.4999;1.80E-10;57.222087;1;1.36E-12;57.222087
22;1.53E-10;57.398452;0.999999;2.96E-12;57.398452
21.5;1.36E-10;57.575671;0.999999;1.40E-13;57.575671
21;1.11E-10;57.751834;0.999999;9.20E-13;57.751834
20.5;8.79E-11;57.927878;1.000001;1.40E-12;57.927878
20;5.94E-11;58.104024;1;2.51E-12;58.104024
19.4999;3.84E-11;58.280121;1;2.93E-12;58.280121
18.9999;1.93E-11;58.456214;0.999999;2.87E-12;58.456214
