Time (s)	|IDrain (A)|	|IGate (A)	Vdrain(V)	Vgate(V)
0.0	1.5232e-05	0.0010118	-10.0	20.0
1.0	1.537e-05	0.0010118	-10.0	19.9
1.5	1.542e-05	0.0010118	-10.0	19.8
2.0	1.5463e-05	0.0010118	-10.0	19.7
2.5	1.55e-05	0.0010118	-10.0	19.6
3.0	1.5532e-05	0.0010118	-10.0	19.5
3.5	1.5559e-05	0.0010118	-10.0	19.4
4.0	1.5582e-05	0.0010118	-10.0	19.3
4.5	1.5606e-05	0.0010118	-10.0	19.2
5.0	1.5626e-05	0.0010118	-10.0	19.1
5.5	1.5646e-05	0.0010118	-10.0	19.0
6.0	1.5667e-05	0.0010118	-10.0	18.9
6.5	1.5683e-05	0.0010118	-10.0	18.8
7.0	1.5699e-05	0.0010118	-10.0	18.7
7.5	1.5713e-05	0.0010118	-10.0	18.6
8.0	1.5729e-05	0.0010118	-10.0	18.5
8.5	1.5742e-05	0.0010117	-10.0	18.4
9.0	1.5753e-05	0.0010118	-10.0	18.3
9.5	1.5767e-05	0.0010118	-10.0	18.2
10.0	1.578e-05	0.0010118	-10.0	18.1
10.5	1.5793e-05	0.0010117	-10.0	18.0
11.0	1.5805e-05	0.0010117	-10.0	17.9
11.5	1.5816e-05	0.0010117	-10.0	17.8
12.0	1.5824e-05	0.0010118	-10.0	17.7
12.5	1.5834e-05	0.0010118	-10.0	17.6
13.0	1.5848e-05	0.0010117	-10.0	17.5
13.5	1.5856e-05	0.0010117	-10.0	17.4
14.0	1.5867e-05	0.0010117	-10.0	17.3
14.5	1.5876e-05	0.0010117	-10.0	17.2
15.0	1.5889e-05	0.0010117	-10.0	17.1
15.5	1.5897e-05	0.0010118	-10.0	17.0
16.0	1.5907e-05	0.0010117	-10.0	16.9
16.5	1.5917e-05	0.0010117	-10.0	16.8
17.0	1.5926e-05	0.0010117	-10.0	16.7
17.5	1.5933e-05	0.0010117	-10.0	16.6
18.0	1.5942e-05	0.0010117	-10.0	16.5
18.5	1.5948e-05	0.0010117	-10.0	16.4
19.0	1.5955e-05	0.0010117	-10.0	16.3
19.5	1.5964e-05	0.0010117	-10.0	16.2
20.0	1.5972e-05	0.0010117	-10.0	16.1
20.5	1.5978e-05	0.0010117	-10.0	16.0
21.0	1.5984e-05	0.0010117	-10.0	15.9
21.5	1.599e-05	0.0010117	-10.0	15.8
22.0	1.5997e-05	0.0010117	-10.0	15.7
22.5	1.6004e-05	0.0010117	-10.0	15.6
23.0	1.601e-05	0.0010117	-10.0	15.5
23.5	1.6017e-05	0.0010117	-10.0	15.4
24.0	1.6024e-05	0.0010117	-10.0	15.3
24.5	1.603e-05	0.0010117	-10.0	15.2
25.0	1.6039e-05	0.0010116	-10.0	15.1
25.5	1.6044e-05	0.0010117	-10.0	15.0
26.0	1.605e-05	0.0010117	-10.0	14.9
26.5	1.6054e-05	0.0010117	-10.0	14.8
27.0	1.6061e-05	0.0010117	-10.0	14.7
27.5	1.6068e-05	0.0010117	-10.0	14.6
28.0	1.6072e-05	0.0010117	-10.0	14.5
28.5	1.6076e-05	0.0010117	-10.0	14.4
29.0	1.608e-05	0.0010117	-10.0	14.3
29.5	1.6086e-05	0.0010117	-10.0	14.2
30.0	1.6091e-05	0.0010116	-10.0	14.1
30.5	1.6096e-05	0.0010117	-10.0	14.0
31.0	1.6101e-05	0.0010117	-10.0	13.9
31.5	1.6105e-05	0.0010117	-10.0	13.8
32.0	1.6109e-05	0.0010117	-10.0	13.7
32.5	1.6117e-05	0.0010118	-10.0	13.6
33.0	1.612e-05	0.0010117	-10.0	13.5
33.5	1.6125e-05	0.0010118	-10.0	13.4
34.0	1.6131e-05	0.0010118	-10.0	13.3
34.5	1.6136e-05	0.0010118	-10.0	13.2
35.0	1.6139e-05	0.0010117	-10.0	13.1
35.5	1.6146e-05	0.0010117	-10.0	13.0
36.0	1.615e-05	0.0010117	-10.0	12.9
36.5	1.6156e-05	0.0010117	-10.0	12.8
37.0	1.6163e-05	0.0010117	-10.0	12.7
37.5	1.6167e-05	0.0010117	-10.0	12.6
38.0	1.6172e-05	0.0010117	-10.0	12.5
38.5	1.6175e-05	0.0010117	-10.0	12.4
39.0	1.6177e-05	0.0010117	-10.0	12.3
39.5	1.6184e-05	0.0010117	-10.0	12.2
40.0	1.6188e-05	0.0010117	-10.0	12.1
40.5	1.619e-05	0.0010117	-10.0	12.0
41.0	1.6194e-05	0.0010117	-10.0	11.9
41.5	1.6199e-05	0.0010117	-10.0	11.8
42.0	1.6203e-05	0.0010117	-10.0	11.7
42.5	1.6205e-05	0.0010117	-10.0	11.6
43.0	1.6209e-05	0.0010117	-10.0	11.5
43.5	1.6212e-05	0.0010117	-10.0	11.4
44.0	1.6216e-05	0.0010117	-10.0	11.3
44.5	1.6223e-05	0.0010117	-10.0	11.2
45.0	1.6225e-05	0.0010117	-10.0	11.1
45.5	1.623e-05	0.0010117	-10.0	11.0
46.0	1.6234e-05	0.0010117	-10.0	10.9
46.5	1.6238e-05	0.0010117	-10.0	10.8
47.0	1.6241e-05	0.0010116	-10.0	10.7
47.5	1.6244e-05	0.0010116	-10.0	10.6
48.0	1.6245e-05	0.0010117	-10.0	10.5
48.5	1.6252e-05	0.0010117	-10.0	10.4
49.0	1.6253e-05	0.0010117	-10.0	10.3
49.5	1.6257e-05	0.0010116	-10.0	10.2
50.0	1.626e-05	0.0010116	-10.0	10.1
50.5	1.6264e-05	0.0010117	-10.0	10.0
51.0	1.627e-05	0.0010117	-10.0	9.9
51.5	1.6273e-05	0.0010117	-10.0	9.8
52.0	1.6276e-05	0.0010117	-10.0	9.7
52.5	1.628e-05	0.0010117	-10.0	9.6
53.0	1.6285e-05	0.0010117	-10.0	9.5
53.5	1.6287e-05	0.0010117	-10.0	9.4
54.0	1.6291e-05	0.0010117	-10.0	9.3
54.5	1.6294e-05	0.0010116	-10.0	9.2
55.0	1.6295e-05	0.0010117	-10.0	9.1
55.5	1.6302e-05	0.0010117	-10.0	9.0
56.0	1.6304e-05	0.0010117	-10.0	8.9
56.5	1.6307e-05	0.0010117	-10.0	8.8
57.0	1.6311e-05	0.0010117	-10.0	8.7
57.5	1.6313e-05	0.0010116	-10.0	8.6
58.0	1.6317e-05	0.0010117	-10.0	8.5
58.5	1.6321e-05	0.0010117	-10.0	8.4
59.0	1.6324e-05	0.0010117	-10.0	8.3
59.5	1.6327e-05	0.0010117	-10.0	8.2
60.0	1.633e-05	0.0010116	-10.0	8.1
60.5	1.6331e-05	0.0010117	-10.0	8.0
61.0	1.6334e-05	0.0010117	-10.0	7.9
61.5	1.6337e-05	0.0010116	-10.0	7.8
62.0	1.634e-05	0.0010117	-10.0	7.7
62.5	1.6341e-05	0.0010117	-10.0	7.6
63.0	1.6344e-05	0.0010116	-10.0	7.5
63.5	1.6348e-05	0.0010117	-10.0	7.4
64.0	1.6349e-05	0.0010117	-10.0	7.3
64.5	1.6352e-05	0.0010117	-10.0	7.2
65.0	1.6355e-05	0.0010117	-10.0	7.1
65.5	1.6359e-05	0.0010117	-10.0	7.0
66.0	1.6361e-05	0.0010116	-10.0	6.9
66.5	1.6364e-05	0.0010116	-10.0	6.8
67.0	1.6368e-05	0.0010116	-10.0	6.7
67.5	1.637e-05	0.0010116	-10.0	6.6
68.0	1.6371e-05	0.0010116	-10.0	6.5
68.5	1.6375e-05	0.0010116	-10.0	6.4
69.0	1.6378e-05	0.0010116	-10.0	6.3
69.5	1.638e-05	0.0010117	-10.0	6.2
70.0	1.6384e-05	0.0010117	-10.0	6.1
70.5	1.6386e-05	0.0010117	-10.0	6.0
71.0	1.6388e-05	0.0010117	-10.0	5.9
71.5	1.639e-05	0.0010116	-10.0	5.8
72.0	1.6392e-05	0.0010117	-10.0	5.7
72.5	1.6394e-05	0.0010116	-10.0	5.6
73.0	1.6401e-05	0.0010116	-10.0	5.5
73.5	1.6404e-05	0.0010116	-10.0	5.4
74.0	1.6408e-05	0.0010117	-10.0	5.3
74.5	1.6408e-05	0.0010116	-10.0	5.2
75.0	1.6411e-05	0.0010116	-10.0	5.1
75.5	1.6412e-05	0.0010116	-10.0	5.0
76.0	1.6413e-05	0.0010116	-10.0	4.9
76.5	1.6417e-05	0.0010116	-10.0	4.8
77.0	1.6418e-05	0.0010116	-10.0	4.7
77.5	1.6422e-05	0.0010116	-10.0	4.6
78.0	1.6426e-05	0.0010116	-10.0	4.5
78.5	1.6427e-05	0.0010116	-10.0	4.4
79.0	1.6432e-05	0.0010117	-10.0	4.3
79.5	1.6431e-05	0.0010117	-10.0	4.2
80.0	1.6434e-05	0.0010117	-10.0	4.1
80.5	1.6438e-05	0.0010117	-10.0	4.0
81.0	1.6436e-05	0.0010117	-10.0	3.9
81.5	1.6441e-05	0.0010117	-10.0	3.8
82.0	1.6446e-05	0.0010117	-10.0	3.7
82.5	1.6447e-05	0.0010117	-10.0	3.6
83.0	1.645e-05	0.0010117	-10.0	3.5
83.5	1.6453e-05	0.0010117	-10.0	3.4
84.0	1.6454e-05	0.0010117	-10.0	3.3
84.5	1.646e-05	0.0010117	-10.0	3.2
85.0	1.6459e-05	0.0010116	-10.0	3.1
85.5	1.6458e-05	0.0010117	-10.0	3.0
86.0	1.6462e-05	0.0010117	-10.0	2.9
86.5	1.6463e-05	0.0010117	-10.0	2.8
87.0	1.6467e-05	0.0010116	-10.0	2.7
87.5	1.6465e-05	0.0010116	-10.0	2.6
88.0	1.6467e-05	0.0010116	-10.0	2.5
88.5	1.647e-05	0.0010117	-10.0	2.4
89.0	1.6473e-05	0.0010117	-10.0	2.3
89.5	1.6474e-05	0.0010117	-10.0	2.2
90.0	1.6474e-05	0.0010117	-10.0	2.1
90.5	1.648e-05	0.0010117	-10.0	2.0
91.0	1.6484e-05	0.0010116	-10.0	1.9
91.5	1.6487e-05	0.0010116	-10.0	1.8
92.0	1.6488e-05	0.0010116	-10.0	1.7
92.5	1.6489e-05	0.0010116	-10.0	1.6
93.0	1.6492e-05	0.0010117	-10.0	1.5
93.5	1.6494e-05	0.0010117	-10.0	1.4
94.0	1.6496e-05	0.0010117	-10.0	1.3
94.5	1.6497e-05	0.0010117	-10.0	1.2
95.0	1.65e-05	0.0010117	-10.0	1.1
95.5	1.6504e-05	0.0010116	-10.0	1.0
96.0	1.6505e-05	0.0010116	-10.0	0.9
96.5	1.6507e-05	0.0010117	-10.0	0.8
97.0	1.6508e-05	0.0010117	-10.0	0.7
97.5	1.6511e-05	0.0010117	-10.0	0.6
98.0	1.6515e-05	0.0010117	-10.0	0.5
98.5	1.6517e-05	0.0010117	-10.0	0.4
99.0	1.6518e-05	0.0010117	-10.0	0.3
99.5	1.6522e-05	0.0010117	-10.0	0.2
100.0	1.6522e-05	0.0010117	-10.0	0.1
100.5	1.6526e-05	0.00098843	-10.0	-1.5293e-14
101.5	1.6529e-05	0.0009884	-10.0	-0.1
102.5	1.6533e-05	0.00098838	-10.0	-0.2
103.5	1.6539e-05	0.00098837	-10.0	-0.3
104.5	1.6541e-05	0.0009884	-10.0	-0.4
105.5	1.6544e-05	0.00098841	-10.0	-0.5
106.5	1.6548e-05	0.00098832	-10.0	-0.6
107.5	1.6554e-05	0.00098832	-10.0	-0.7
108.5	1.6556e-05	0.00098837	-10.0	-0.8
109.5	1.6558e-05	0.00098831	-10.0	-0.9
110.5	1.6565e-05	0.00098836	-10.0	-1.0
111.5	1.6569e-05	0.00098836	-10.0	-1.1
112.5	1.6571e-05	0.0009884	-10.0	-1.2
113.5	1.6579e-05	0.00098836	-10.0	-1.3
114.5	1.6583e-05	0.00098832	-10.0	-1.4
115.5	1.6586e-05	0.00098832	-10.0	-1.5
116.5	1.6588e-05	0.00098833	-10.0	-1.6
117.5	1.6595e-05	0.00098834	-10.0	-1.7
118.5	1.6597e-05	0.00098834	-10.0	-1.8
119.5	1.6599e-05	0.00098828	-10.0	-1.9
120.5	1.6603e-05	0.00098828	-10.0	-2.0
121.5	1.6603e-05	0.00098825	-10.0	-2.1
122.5	1.661e-05	0.00098825	-10.0	-2.2
123.5	1.6616e-05	0.00098825	-10.0	-2.3
124.5	1.662e-05	0.00098821	-10.0	-2.4
125.5	1.6623e-05	0.00098825	-10.0	-2.5
126.5	1.6627e-05	0.00098829	-10.0	-2.6
127.5	1.663e-05	0.0009883	-10.0	-2.7
128.5	1.6633e-05	0.00098825	-10.0	-2.8
129.5	1.6636e-05	0.00098828	-10.0	-2.9
130.5	1.6642e-05	0.00098833	-10.0	-3.0
131.5	1.6642e-05	0.00098828	-10.0	-3.1
132.5	1.6642e-05	0.00098832	-10.0	-3.2
133.5	1.665e-05	0.00098837	-10.0	-3.3
134.5	1.6654e-05	0.00098835	-10.0	-3.4
135.5	1.6657e-05	0.00098835	-10.0	-3.5
136.5	1.6661e-05	0.00098834	-10.0	-3.6
137.5	1.6662e-05	0.00098831	-10.0	-3.7
138.5	1.6662e-05	0.00098831	-10.0	-3.8
139.5	1.667e-05	0.00098831	-10.0	-3.9
140.5	1.6674e-05	0.00098827	-10.0	-4.0
141.5	1.6675e-05	0.00098832	-10.0	-4.1
142.5	1.6676e-05	0.00098832	-10.0	-4.2
143.5	1.668e-05	0.00098835	-10.0	-4.3
144.5	1.6683e-05	0.0009883	-10.0	-4.4
145.5	1.6684e-05	0.00098832	-10.0	-4.5
146.5	1.6691e-05	0.00098839	-10.0	-4.6
147.5	1.6695e-05	0.00098834	-10.0	-4.7
148.5	1.6697e-05	0.00098831	-10.0	-4.8
149.5	1.6701e-05	0.00098829	-10.0	-4.9
150.5	1.6706e-05	0.00098828	-10.0	-5.0
151.5	1.6709e-05	0.00098831	-10.0	-5.1
152.5	1.671e-05	0.00098829	-10.0	-5.2
153.5	1.6713e-05	0.00098831	-10.0	-5.3
154.5	1.6715e-05	0.0009883	-10.0	-5.4
155.5	1.6717e-05	0.0009883	-10.0	-5.5
156.5	1.6717e-05	0.0009883	-10.0	-5.6
157.5	1.6722e-05	0.00098826	-10.0	-5.7
158.5	1.6726e-05	0.0009883	-10.0	-5.8
159.5	1.673e-05	0.00098832	-10.0	-5.9
160.5	1.6731e-05	0.00098832	-10.0	-6.0
161.5	1.6735e-05	0.00098834	-10.0	-6.1
162.5	1.674e-05	0.00098834	-10.0	-6.2
163.5	1.6743e-05	0.00098835	-10.0	-6.3
164.5	1.6743e-05	0.00098831	-10.0	-6.4
165.5	1.6748e-05	0.00098837	-10.0	-6.5
166.5	1.6748e-05	0.00098836	-10.0	-6.6
167.5	1.6751e-05	0.00098838	-10.0	-6.7
168.5	1.6752e-05	0.00098834	-10.0	-6.8
169.5	1.6757e-05	0.00098831	-10.0	-6.9
170.5	1.6762e-05	0.00098837	-10.0	-7.0
171.5	1.6766e-05	0.00098832	-10.0	-7.1
172.5	1.6767e-05	0.00098837	-10.0	-7.2
173.5	1.677e-05	0.00098831	-10.0	-7.3
174.5	1.6772e-05	0.00098835	-10.0	-7.4
175.5	1.6774e-05	0.00098838	-10.0	-7.5
176.5	1.6777e-05	0.00098841	-10.0	-7.6
177.5	1.6779e-05	0.00098839	-10.0	-7.7
178.5	1.6781e-05	0.00098839	-10.0	-7.8
179.5	1.6787e-05	0.00098835	-10.0	-7.9
180.5	1.679e-05	0.00098833	-10.0	-8.0
181.5	1.679e-05	0.00098835	-10.0	-8.1
182.5	1.6793e-05	0.0009884	-10.0	-8.2
183.5	1.6796e-05	0.0009884	-10.0	-8.3
184.5	1.6797e-05	0.00098837	-10.0	-8.4
185.5	1.6802e-05	0.00098836	-10.0	-8.5
186.5	1.6804e-05	0.00098832	-10.0	-8.6
187.5	1.6808e-05	0.00098834	-10.0	-8.7
188.5	1.6809e-05	0.00098835	-10.0	-8.8
189.5	1.6812e-05	0.00098833	-10.0	-8.9
190.5	1.6811e-05	0.00098836	-10.0	-9.0
191.5	1.6818e-05	0.00098832	-10.0	-9.1
192.5	1.6818e-05	0.00098832	-10.0	-9.2
193.5	1.6823e-05	0.00098834	-10.0	-9.3
194.5	1.6828e-05	0.00098833	-10.0	-9.4
195.5	1.6828e-05	0.00098831	-10.0	-9.5
196.5	1.683e-05	0.00098832	-10.0	-9.6
197.5	1.6834e-05	0.0009883	-10.0	-9.7
198.5	1.6839e-05	0.00098833	-10.0	-9.8
199.5	1.6839e-05	0.00098833	-10.0	-9.9
200.5	1.6842e-05	0.00098832	-10.0	-10.0
201.5	1.6844e-05	0.00098832	-10.0	-10.1
202.5	1.6846e-05	0.00098835	-10.0	-10.2
203.5	1.6851e-05	0.00098834	-10.0	-10.3
204.5	1.6851e-05	0.00098837	-10.0	-10.4
205.5	1.6855e-05	0.00098839	-10.0	-10.5
206.5	1.6859e-05	0.00098837	-10.0	-10.6
207.5	1.6862e-05	0.00098832	-10.0	-10.7
208.5	1.6863e-05	0.00098835	-10.0	-10.8
209.5	1.6865e-05	0.00098833	-10.0	-10.9
210.5	1.6872e-05	0.00098836	-10.0	-11.0
211.5	1.6869e-05	0.00098832	-10.0	-11.1
212.5	1.6874e-05	0.00098829	-10.0	-11.2
213.5	1.6878e-05	0.00098834	-10.0	-11.3
214.5	1.6878e-05	0.00098832	-10.0	-11.4
215.5	1.6878e-05	0.00098834	-10.0	-11.5
216.5	1.6881e-05	0.00098834	-10.0	-11.6
217.5	1.6884e-05	0.00098832	-10.0	-11.7
218.5	1.6885e-05	0.00098836	-10.0	-11.8
219.5	1.6887e-05	0.00098833	-10.0	-11.9
220.5	1.6889e-05	0.0009884	-10.0	-12.0
221.5	1.6891e-05	0.00098838	-10.0	-12.1
222.5	1.6897e-05	0.00098837	-10.0	-12.2
223.5	1.6898e-05	0.00098837	-10.0	-12.3
224.5	1.6902e-05	0.00098837	-10.0	-12.4
225.5	1.6906e-05	0.00098828	-10.0	-12.5
226.5	1.6908e-05	0.00098835	-10.0	-12.6
227.5	1.691e-05	0.00098831	-10.0	-12.7
228.5	1.6912e-05	0.00098832	-10.0	-12.8
229.5	1.6916e-05	0.00098834	-10.0	-12.9
