#scan;iMeasureCycle=1;iMux=0;time=0.138;N=482;LocalTime=31/10/2023 13:23:03;;;;;
#VGate(V);IGate(A);time(s);VDrain(V);IDrain(A);time(s);;;;|IDrain| (A);|IGate| (A)
-60;-5.87E-09;0.298551;0.1;4.44E-09;0.298551;;;;4.44E-09;5.87E-09
-59.5;-4.16E-09;0.475511;0.1000003;2.94E-09;0.475511;;;;2.94E-09;4.16E-09
-59.0001;-3.28E-09;0.652243;0.1;2.19E-09;0.652243;;;;2.19E-09;3.28E-09
-58.5;-2.86E-09;0.846635;0.1000004;1.87E-09;0.846635;;;;1.87E-09;2.86E-09
-58.0001;-2.33E-09;1.024062;0.1000002;1.40E-09;1.024062;;;;1.4E-09;2.33E-09
-57.5001;-2.01E-09;1.200711;0.1;1.13E-09;1.200711;;;;1.13E-09;2.01E-09
-57;-1.72E-09;1.409171;0.1000003;8.93E-10;1.409171;;;;8.93E-10;1.72E-09
-56.5001;-1.47E-09;1.585746;0.1000003;6.99E-10;1.585746;;;;6.99E-10;1.47E-09
-56.0001;-1.29E-09;1.762402;0.0999996;5.51E-10;1.762402;;;;5.51E-10;1.29E-09
-55.5001;-1.17E-09;1.938942;0.1000002;4.59E-10;1.938942;;;;4.59E-10;1.17E-09
-55.0001;-1.03E-09;2.115557;0.1000002;3.46E-10;2.115557;;;;3.46E-10;1.03E-09
-54.5001;-9.29E-10;2.29204;0.1000004;2.73E-10;2.29204;;;;2.73E-10;9.29E-10
-54;-8.39E-10;2.468839;0.0999997;2.16E-10;2.468839;;;;2.16E-10;8.39E-10
-53.5001;-7.80E-10;2.645498;0.0999998;1.81E-10;2.645498;;;;1.81E-10;7.8E-10
-53;-7.06E-10;2.821984;0.1000001;1.27E-10;2.821984;;;;1.27E-10;7.06E-10
-52.5;-6.39E-10;3.009655;0.1000001;7.70E-11;3.009655;;;;7.7E-11;6.39E-10
-52.0001;-5.97E-10;3.186248;0.1000002;5.44E-11;3.186248;;;;5.44E-11;5.97E-10
-51.5;-5.60E-10;3.39289;0.1;3.01E-11;3.39289;;;;3.01E-11;5.6E-10
-51;-5.08E-10;3.569429;0.0999999;5.04E-12;3.569429;;;;5.04E-12;5.08E-10
-50.5001;-4.86E-10;3.746076;0.1000002;-2.43E-12;3.746076;;;;2.43E-12;4.86E-10
-50;-4.54E-10;3.922591;0.0999996;-1.64E-11;3.922591;;;;1.64E-11;4.54E-10
-49.5001;-4.31E-10;4.099256;0.1000004;-3.14E-11;4.099256;;;;3.14E-11;4.31E-10
-49;-3.94E-10;4.275842;0.0999998;-5.67E-11;4.275842;;;;5.67E-11;3.94E-10
-48.5;-3.49E-10;4.453992;0.0999996;-8.38E-11;4.453992;;;;8.38E-11;3.49E-10
-48.0001;-3.23E-10;4.630684;0.0999998;-1.03E-10;4.630684;;;;1.03E-10;3.23E-10
-47.5001;-2.74E-10;4.807174;0.0999998;-1.42E-10;4.807174;;;;1.42E-10;2.74E-10
-47.0001;-2.30E-10;4.985725;0.1000001;-1.72E-10;4.985725;;;;1.72E-10;2.3E-10
-46.5;-1.79E-10;5.162337;0.0999996;-2.10E-10;5.162337;;;;2.1E-10;1.79E-10
-46;-1.70E-10;5.359081;0.1;-2.16E-10;5.359081;;;;2.16E-10;1.7E-10
-45.5;-1.03E-10;5.535688;0.1000002;-2.72E-10;5.535688;;;;2.72E-10;1.03E-10
-45;-3.63E-11;5.712265;0.0999999;-3.22E-10;5.712265;;;;3.22E-10;3.63E-11
-44.5001;-1.98E-11;5.925239;0.1000001;-3.37E-10;5.925239;;;;3.37E-10;1.98E-11
-44;2.23E-11;6.101729;0.0999998;-3.66E-10;6.101729;;;;3.66E-10;2.23E-11
-43.5;6.88E-11;6.278359;0.1000003;-3.98E-10;6.278359;;;;3.98E-10;6.88E-11
-43;1.13E-10;6.454659;0.1000002;-4.33E-10;6.454659;;;;4.33E-10;1.13E-10
-42.5;1.40E-10;6.631349;0.1;-4.53E-10;6.631349;;;;4.53E-10;1.4E-10
-42.0001;1.60E-10;6.807723;0.1000002;-4.64E-10;6.807723;;;;4.64E-10;1.6E-10
-41.4999;1.71E-10;6.986536;0.0999998;-4.67E-10;6.986536;;;;4.67E-10;1.71E-10
-41;2.04E-10;7.16304;0.1;-4.87E-10;7.16304;;;;4.87E-10;2.04E-10
-40.5;2.25E-10;7.339718;0.1;-5.02E-10;7.339718;;;;5.02E-10;2.25E-10
-40;2.71E-10;7.521183;0.1000001;-5.38E-10;7.521183;;;;5.38E-10;2.71E-10
-39.5001;2.83E-10;7.697519;0.1000001;-5.40E-10;7.697519;;;;5.4E-10;2.83E-10
-39.0001;3.34E-10;7.905495;0.0999999;-5.83E-10;7.905495;;;;5.83E-10;3.34E-10
-38.5;3.63E-10;8.081849;0.1;-6.01E-10;8.081849;;;;6.01E-10;3.63E-10
-38.0001;3.93E-10;8.258182;0.0999996;-6.23E-10;8.258182;;;;6.23E-10;3.93E-10
-37.5;4.18E-10;8.435745;0.1000001;-6.31E-10;8.435745;;;;6.31E-10;4.18E-10
-37;4.25E-10;8.61216;0.1000003;-6.22E-10;8.61216;;;;6.22E-10;4.25E-10
-36.5;4.71E-10;8.788431;0.0999999;-6.48E-10;8.788431;;;;6.48E-10;4.71E-10
-36;4.68E-10;8.966468;0.0999998;-6.30E-10;8.966468;;;;6.3E-10;4.68E-10
-35.5001;4.89E-10;9.14285;0.0999993;-6.30E-10;9.14285;;;;6.3E-10;4.89E-10
-35.0001;5.26E-10;9.319231;0.1000001;-6.30E-10;9.319231;;;;6.3E-10;5.26E-10
-34.5;5.07E-10;9.497598;0.0999995;-5.75E-10;9.497598;;;;5.75E-10;5.07E-10
-34.0001;5.22E-10;9.674104;0.0999998;-5.51E-10;9.674104;;;;5.51E-10;5.22E-10
-33.5;5.39E-10;9.872569;0.0999996;-5.19E-10;9.872569;;;;5.19E-10;5.39E-10
-33;5.78E-10;10.049048;0.0999998;-4.87E-10;10.049048;;;;4.87E-10;5.78E-10
-32.5001;6.22E-10;10.225622;0.1;-4.44E-10;10.225622;;;;4.44E-10;6.22E-10
-32;5.95E-10;10.43848;0.1000001;-3.17E-10;10.43848;;;;3.17E-10;5.95E-10
-31.5;6.48E-10;10.614778;0.1000002;-2.19E-10;10.614778;;;;2.19E-10;6.48E-10
-31.0001;6.53E-10;10.791096;0.1000007;-3.94E-11;10.791096;;;;3.94E-11;6.53E-10
-30.5001;6.59E-10;10.967285;0.0999999;1.69E-10;10.967285;;;;1.69E-10;6.59E-10
-30.0001;7.01E-10;11.14375;0.1;4.00E-10;11.14375;;;;4E-10;7.01E-10
-29.5001;7.27E-10;11.319962;0.0999997;6.85E-10;11.319962;;;;6.85E-10;7.27E-10
-29;7.69E-10;11.498729;0.0999999;1.04E-09;11.498729;;;;1.04E-09;7.69E-10
-28.5;7.47E-10;11.675219;0.0999997;1.52E-09;11.675219;;;;1.52E-09;7.47E-10
-28.0001;7.95E-10;11.851585;0.1;1.97E-09;11.851585;;;;1.97E-09;7.95E-10
-27.5001;8.34E-10;12.034386;0.1000004;2.47E-09;12.034386;;;;2.47E-09;8.34E-10
-27.0001;8.20E-10;12.210829;0.1;3.18E-09;12.210829;;;;3.18E-09;8.2E-10
-26.5001;8.06E-10;12.414842;0.1000006;3.78E-09;12.414842;;;;3.78E-09;8.06E-10
-26;8.08E-10;12.591102;0.1000001;4.84E-09;12.591102;;;;4.84E-09;8.08E-10
-25.5;8.37E-10;12.767342;0.1;5.63E-09;12.767342;;;;5.63E-09;8.37E-10
-25.0001;8.82E-10;12.944621;0.0999999;6.60E-09;12.944621;;;;6.6E-09;8.82E-10
-24.5001;8.92E-10;13.120783;0.0999998;7.76E-09;13.120783;;;;7.76E-09;8.92E-10
-24.0001;9.05E-10;13.297302;0.0999992;8.92E-09;13.297302;;;;8.92E-09;9.05E-10
-23.5001;9.67E-10;13.467638;0.0999999;1.04E-08;13.467638;;;;1.04E-08;9.67E-10
-23;1.01E-09;13.617746;0.1000008;1.17E-08;13.617746;;;;1.17E-08;1.01E-09
-22.5001;1.13E-09;13.767825;0.099999;1.29E-08;13.767825;;;;1.29E-08;1.13E-09
-22;1.12E-09;13.925262;0.0999988;1.46E-08;13.925262;;;;1.46E-08;1.12E-09
-21.5001;1.12E-09;14.075302;0.099999;1.66E-08;14.075302;;;;1.66E-08;1.12E-09
-21.0001;1.17E-09;14.225135;0.0999998;1.82E-08;14.225135;;;;1.82E-08;1.17E-09
-20.5001;1.14E-09;14.399793;0.0999998;2.03E-08;14.399793;;;;2.03E-08;1.14E-09
-20.0001;1.25E-09;14.5497;0.0999991;2.27E-08;14.5497;;;;2.27E-08;1.25E-09
-19.5001;1.23E-09;14.69951;0.1000007;2.42E-08;14.69951;;;;2.42E-08;1.23E-09
-19;1.28E-09;14.849275;0.0999975;2.63E-08;14.849275;;;;2.63E-08;1.28E-09
-18.5;1.31E-09;15.015782;0.1000038;2.90E-08;15.015782;;;;0.000000029;1.31E-09
-18.0001;1.29E-09;15.165676;0.1000022;3.24E-08;15.165676;;;;3.24E-08;1.29E-09
-17.5;1.42E-09;15.315539;0.1000034;3.45E-08;15.315539;;;;3.45E-08;1.42E-09
-17;1.40E-09;15.46553;0.0999971;3.76E-08;15.46553;;;;3.76E-08;1.4E-09
-16.5001;1.39E-09;15.615746;0.1000023;4.03E-08;15.615746;;;;4.03E-08;1.39E-09
-16.0001;1.54E-09;15.765631;0.0999995;4.25E-08;15.765631;;;;4.25E-08;1.54E-09
-15.5;1.39E-09;15.929976;0.0999955;4.62E-08;15.929976;;;;4.62E-08;1.39E-09
-15;1.46E-09;16.079882;0.100001;4.90E-08;16.079882;;;;0.000000049;1.46E-09
-14.5001;1.50E-09;16.229897;0.1000032;5.28E-08;16.229897;;;;5.28E-08;1.5E-09
-14.0001;1.51E-09;16.404918;0.099999;5.54E-08;16.404918;;;;5.54E-08;1.51E-09
-13.5;1.62E-09;16.554831;0.0999983;5.90E-08;16.554831;;;;0.000000059;1.62E-09
-13;1.75E-09;16.704668;0.1000004;6.20E-08;16.704668;;;;0.000000062;1.75E-09
-12.5001;1.85E-09;16.854419;0.1000037;6.55E-08;16.854419;;;;6.55E-08;1.85E-09
-12.0001;1.91E-09;17.020626;0.1000032;6.81E-08;17.020626;;;;6.81E-08;1.91E-09
-11.5001;2.06E-09;17.170481;0.0999948;7.39E-08;17.170481;;;;7.39E-08;2.06E-09
-11.0001;1.98E-09;17.320417;0.1000054;7.77E-08;17.320417;;;;7.77E-08;1.98E-09
-10.5001;1.99E-09;17.470248;0.0999938;8.12E-08;17.470248;;;;8.12E-08;1.99E-09
-10;2.26E-09;17.620609;0.1000018;8.53E-08;17.620609;;;;8.53E-08;2.26E-09
-9.5;1.99E-09;17.770451;0.1000038;9.13E-08;17.770451;;;;9.13E-08;1.99E-09
-9;1.96E-09;17.934908;0.0999976;9.53E-08;17.934908;;;;9.53E-08;1.96E-09
-8.5001;2.00E-09;18.084812;0.1000031;1.00E-07;18.084812;;;;0.0000001;0.000000002
-8.0001;1.94E-09;18.240575;0.0999998;1.04E-07;18.240575;;;;0.000000104;1.94E-09
-7.5001;1.71E-09;18.428354;0.0999998;1.09E-07;18.428354;;;;0.000000109;1.71E-09
-7.0001;1.75E-09;18.5782;0.1000001;1.15E-07;18.5782;;;;0.000000115;1.75E-09
-6.5;1.70E-09;18.728295;0.1;1.22E-07;18.728295;;;;0.000000122;1.7E-09
-6.0001;1.49E-09;18.909633;0.0999997;1.26E-07;18.909633;;;;0.000000126;1.49E-09
-5.5;1.37E-09;19.059705;0.0999999;1.34E-07;19.059705;;;;0.000000134;1.37E-09
-5.0001;1.43E-09;19.20964;0.1000004;1.39E-07;19.20964;;;;0.000000139;1.43E-09
-4.5001;1.35E-09;19.359432;0.0999999;1.45E-07;19.359432;;;;0.000000145;1.35E-09
-4;1.30E-09;19.526826;0.0999999;1.51E-07;19.526826;;;;0.000000151;1.3E-09
-3.5001;1.30E-09;19.676795;0.0999996;1.59E-07;19.676795;;;;0.000000159;1.3E-09
-3.0001;1.33E-09;19.82663;0.1000001;1.66E-07;19.82663;;;;0.000000166;1.33E-09
-2.5001;1.32E-09;19.976468;0.0999998;1.73E-07;19.976468;;;;0.000000173;1.32E-09
-2;1.30E-09;20.126836;0.1000001;1.81E-07;20.126836;;;;0.000000181;1.3E-09
-1.5001;1.25E-09;20.276745;0.0999998;1.86E-07;20.276745;;;;0.000000186;1.25E-09
-1.0001;1.20E-09;20.441178;0.1;1.95E-07;20.441178;;;;0.000000195;1.2E-09
-0.5;1.17E-09;20.591108;0.1000002;2.05E-07;20.591108;;;;0.000000205;1.17E-09
0;1.14E-09;20.74102;0.0999996;2.12E-07;20.74102;;;;0.000000212;1.14E-09
0.5;9.51E-10;20.916248;0.1;2.21E-07;20.916248;;;;0.000000221;9.51E-10
0.9999;1.01E-09;21.066113;0.1000002;2.30E-07;21.066113;;;;0.00000023;1.01E-09
1.4999;1.11E-09;21.216117;0.1;2.39E-07;21.216117;;;;0.000000239;1.11E-09
2;1.26E-09;21.365941;0.0999998;2.50E-07;21.365941;;;;0.00000025;1.26E-09
2.4999;1.37E-09;21.531769;0.1000001;2.58E-07;21.531769;;;;0.000000258;1.37E-09
3;1.43E-09;21.68171;0.0999998;2.71E-07;21.68171;;;;0.000000271;1.43E-09
3.5;1.40E-09;21.831502;0.1000002;2.83E-07;21.831502;;;;0.000000283;1.4E-09
4;1.24E-09;21.981328;0.1000004;2.93E-07;21.981328;;;;0.000000293;1.24E-09
4.5;1.15E-09;22.131671;0.0999996;3.08E-07;22.131671;;;;0.000000308;1.15E-09
5;1.05E-09;22.281557;0.1000001;3.18E-07;22.281557;;;;0.000000318;1.05E-09
5.5;8.48E-10;22.445742;0.0999999;3.31E-07;22.445742;;;;0.000000331;8.48E-10
6;8.34E-10;22.595601;0.0999999;3.43E-07;22.595601;;;;0.000000343;8.34E-10
6.4999;7.97E-10;22.745483;0.1000001;3.58E-07;22.745483;;;;0.000000358;7.97E-10
7;5.54E-10;22.916991;0.1000003;3.67E-07;22.916991;;;;0.000000367;5.54E-10
7.4999;6.69E-10;23.06687;0.1000006;3.78E-07;23.06687;;;;0.000000378;6.69E-10
7.9999;5.81E-10;23.216902;0.1000005;3.96E-07;23.216902;;;;0.000000396;5.81E-10
8.5;5.18E-10;23.366731;0.1000004;4.06E-07;23.366731;;;;0.000000406;5.18E-10
9;4.60E-10;23.536665;0.100001;4.20E-07;23.536665;;;;0.00000042;4.6E-10
9.5;4.18E-10;23.686553;0.1;4.39E-07;23.686553;;;;0.000000439;4.18E-10
10;3.64E-10;23.836408;0.0999992;4.55E-07;23.836408;;;;0.000000455;3.64E-10
10.5;3.33E-10;23.986235;0.1000007;4.69E-07;23.986235;;;;0.000000469;3.33E-10
10.9999;2.94E-10;24.136571;0.0999999;4.85E-07;24.136571;;;;0.000000485;2.94E-10
11.4999;2.76E-10;24.286463;0.1000004;4.99E-07;24.286463;;;;0.000000499;2.76E-10
11.9999;2.40E-10;24.450884;0.1000002;5.17E-07;24.450884;;;;0.000000517;2.4E-10
12.4999;2.50E-10;24.600763;0.0999997;5.36E-07;24.600763;;;;0.000000536;2.5E-10
12.9999;2.50E-10;24.750692;0.1000002;5.50E-07;24.750692;;;;0.00000055;2.5E-10
13.5001;2.16E-10;24.926274;0.1000006;5.66E-07;24.926274;;;;0.000000566;2.16E-10
14;2.34E-10;25.076104;0.1000002;5.83E-07;25.076104;;;;0.000000583;2.34E-10
14.4999;2.38E-10;25.226138;0.0999997;6.06E-07;25.226138;;;;0.000000606;2.38E-10
15;2.30E-10;25.37601;0.1000001;6.22E-07;25.37601;;;;0.000000622;2.3E-10
15.5;2.47E-10;25.541585;0.0999994;6.46E-07;25.541585;;;;0.000000646;2.47E-10
16;2.47E-10;25.691516;0.1000005;6.66E-07;25.691516;;;;0.000000666;2.47E-10
16.4999;2.49E-10;25.841303;0.1000009;6.79E-07;25.841303;;;;0.000000679;2.49E-10
16.9999;2.58E-10;25.991152;0.1000004;7.03E-07;25.991152;;;;0.000000703;2.58E-10
17.4999;2.68E-10;26.141625;0.1000013;7.18E-07;26.141625;;;;0.000000718;2.68E-10
18;2.62E-10;26.291539;0.100001;7.40E-07;26.291539;;;;0.00000074;2.62E-10
18.5;2.64E-10;26.455857;0.0999998;7.62E-07;26.455857;;;;0.000000762;2.64E-10
19;2.62E-10;26.605759;0.0999996;7.85E-07;26.605759;;;;0.000000785;2.62E-10
19.5;2.72E-10;26.755689;0.1000003;8.02E-07;26.755689;;;;0.000000802;2.72E-10
19.9999;2.66E-10;26.959902;0.1000002;8.24E-07;26.959902;;;;0.000000824;2.66E-10
20.4999;2.84E-10;27.109811;0.1000003;8.44E-07;27.109811;;;;0.000000844;2.84E-10
21;2.93E-10;27.259844;0.0999989;8.64E-07;27.259844;;;;0.000000864;2.93E-10
21.5;2.85E-10;27.44731;0.0999994;8.85E-07;27.44731;;;;0.000000885;2.85E-10
21.9999;3.02E-10;27.597395;0.1000006;9.13E-07;27.597395;;;;0.000000913;3.02E-10
22.4999;2.99E-10;27.747457;0.1;9.33E-07;27.747457;;;;0.000000933;2.99E-10
22.9999;2.99E-10;27.932459;0.1000005;9.52E-07;27.932459;;;;0.000000952;2.99E-10
23.5;3.07E-10;28.082584;0.1000002;9.82E-07;28.082584;;;;0.000000982;3.07E-10
24;3.09E-10;28.232796;0.1000003;1.00E-06;28.232796;;;;0.000001;3.09E-10
24.5;3.18E-10;28.386124;0.1;1.02E-06;28.386124;;;;0.00000102;3.18E-10
24.9999;3.21E-10;28.549449;0.1;1.04E-06;28.549449;;;;0.00000104;3.21E-10
25.4999;3.35E-10;28.699704;0.1;1.07E-06;28.699704;;;;0.00000107;3.35E-10
26;3.30E-10;28.849682;0.0999998;1.09E-06;28.849682;;;;0.00000109;3.3E-10
26.4999;3.33E-10;28.999728;0.1000001;1.11E-06;28.999728;;;;0.00000111;3.33E-10
27;3.45E-10;29.149815;0.0999999;1.14E-06;29.149815;;;;0.00000114;3.45E-10
27.4999;3.37E-10;29.299878;0.0999999;1.17E-06;29.299878;;;;0.00000117;3.37E-10
28;3.45E-10;29.464017;0.0999998;1.19E-06;29.464017;;;;0.00000119;3.45E-10
28.4999;3.54E-10;29.614086;0.1000001;1.22E-06;29.614086;;;;0.00000122;3.54E-10
29;3.48E-10;29.764137;0.0999999;1.24E-06;29.764137;;;;0.00000124;3.48E-10
29.5;3.55E-10;29.93541;0.1;1.26E-06;29.93541;;;;0.00000126;3.55E-10
30;3.48E-10;30.0855;0.1;1.29E-06;30.0855;;;;0.00000129;3.48E-10
30.5;3.71E-10;30.235692;0.1000001;1.32E-06;30.235692;;;;0.00000132;3.71E-10
30.9999;3.66E-10;30.38591;0.1;1.34E-06;30.38591;;;;0.00000134;3.66E-10
31.4999;3.86E-10;30.554413;0.1000001;1.37E-06;30.554413;;;;0.00000137;3.86E-10
32;3.84E-10;30.70461;0.0999998;1.40E-06;30.70461;;;;0.0000014;3.84E-10
32.5;3.89E-10;30.854666;0.0999999;1.42E-06;30.854666;;;;0.00000142;3.89E-10
33;3.97E-10;31.004717;0.1000001;1.46E-06;31.004717;;;;0.00000146;3.97E-10
33.4999;4.05E-10;31.155331;0.1;1.49E-06;31.155331;;;;0.00000149;4.05E-10
33.9999;4.24E-10;31.305367;0.1;1.51E-06;31.305367;;;;0.00000151;4.24E-10
34.5;4.35E-10;31.469264;0.1000002;1.54E-06;31.469264;;;;0.00000154;4.35E-10
35;4.52E-10;31.619405;0.1;1.58E-06;31.619405;;;;0.00000158;4.52E-10
35.4999;4.60E-10;31.769534;0.1000002;1.60E-06;31.769534;;;;0.0000016;4.6E-10
36;4.46E-10;31.953757;0.0999999;1.61E-06;31.953757;;;;0.00000161;4.46E-10
36.5;4.67E-10;32.103911;0.0999998;1.64E-06;32.103911;;;;0.00000164;4.67E-10
37;4.67E-10;32.254316;0.1;1.67E-06;32.254316;;;;0.00000167;4.67E-10
37.4999;4.80E-10;32.404405;0.0999999;1.70E-06;32.404405;;;;0.0000017;4.8E-10
37.9999;4.85E-10;32.559375;0.1000001;1.73E-06;32.559375;;;;0.00000173;4.85E-10
38.4999;4.86E-10;32.709702;0.0999998;1.76E-06;32.709702;;;;0.00000176;4.86E-10
39;4.96E-10;32.859817;0.0999999;1.78E-06;32.859817;;;;0.00000178;4.96E-10
39.5;5.07E-10;33.009997;0.0999998;1.80E-06;33.009997;;;;0.0000018;5.07E-10
39.9999;5.19E-10;33.16009;0.0999999;1.85E-06;33.16009;;;;0.00000185;5.19E-10
40.5;5.14E-10;33.310336;0.1;1.88E-06;33.310336;;;;0.00000188;5.14E-10
41;5.14E-10;33.474183;0.0999999;1.91E-06;33.474183;;;;0.00000191;5.14E-10
41.4999;5.28E-10;33.624327;0.0999998;1.95E-06;33.624327;;;;0.00000195;5.28E-10
42;5.21E-10;33.774508;0.1;1.97E-06;33.774508;;;;0.00000197;5.21E-10
42.5;5.39E-10;33.966643;0.0999999;2.01E-06;33.966643;;;;0.00000201;5.39E-10
43;5.37E-10;34.11681;0.1;2.04E-06;34.11681;;;;0.00000204;5.37E-10
43.4999;5.43E-10;34.267121;0.1000001;2.06E-06;34.267121;;;;0.00000206;5.43E-10
44;5.60E-10;34.449143;0.0999998;2.11E-06;34.449143;;;;0.00000211;5.6E-10
44.4999;5.53E-10;34.599499;0.1000001;2.13E-06;34.599499;;;;0.00000213;5.53E-10
45;5.70E-10;34.749766;0.1000001;2.16E-06;34.749766;;;;0.00000216;5.7E-10
45.5;5.57E-10;34.89992;0.1;2.20E-06;34.89992;;;;0.0000022;5.57E-10
46;5.73E-10;35.065683;0.0999999;2.24E-06;35.065683;;;;0.00000224;5.73E-10
46.4999;5.76E-10;35.215935;0.1000002;2.27E-06;35.215935;;;;0.00000227;5.76E-10
47;5.85E-10;35.366184;0.0999998;2.31E-06;35.366184;;;;0.00000231;5.85E-10
47.4999;5.86E-10;35.516377;0.0999998;2.34E-06;35.516377;;;;0.00000234;5.86E-10
48;5.98E-10;35.666734;0.1000001;2.38E-06;35.666734;;;;0.00000238;5.98E-10
48.5;6.06E-10;35.816989;0.1;2.39E-06;35.816989;;;;0.00000239;6.06E-10
49;6.14E-10;35.980679;0.0999998;2.43E-06;35.980679;;;;0.00000243;6.14E-10
49.5;6.09E-10;36.131014;0.0999999;2.47E-06;36.131014;;;;0.00000247;6.09E-10
49.9999;6.18E-10;36.281407;0.1;2.51E-06;36.281407;;;;0.00000251;6.18E-10
50.4999;6.08E-10;36.460994;0.1000001;2.53E-06;36.460994;;;;0.00000253;6.08E-10
50.9999;6.17E-10;36.611349;0.1;2.56E-06;36.611349;;;;0.00000256;6.17E-10
51.4999;6.29E-10;36.761658;0.1;2.58E-06;36.761658;;;;0.00000258;6.29E-10
51.9999;6.25E-10;36.912046;0.1000001;2.60E-06;36.912046;;;;0.0000026;6.25E-10
52.5;6.43E-10;37.070686;0.0999998;2.65E-06;37.070686;;;;0.00000265;6.43E-10
53;6.55E-10;37.221;0.1;2.68E-06;37.221;;;;0.00000268;6.55E-10
53.4999;6.34E-10;37.371379;0.1;2.72E-06;37.371379;;;;0.00000272;6.34E-10
53.9999;6.62E-10;37.52177;0.1000001;2.76E-06;37.52177;;;;0.00000276;6.62E-10
54.5;6.56E-10;37.672147;0.1000003;2.80E-06;37.672147;;;;0.0000028;6.56E-10
54.9999;6.66E-10;37.822356;0.1000001;2.82E-06;37.822356;;;;0.00000282;6.66E-10
55.5;6.61E-10;37.98627;0.1000001;2.86E-06;37.98627;;;;0.00000286;6.61E-10
55.9999;6.68E-10;38.136566;0.1;2.89E-06;38.136566;;;;0.00000289;6.68E-10
56.5;6.91E-10;38.287178;0.1;2.93E-06;38.287178;;;;0.00000293;6.91E-10
57;6.93E-10;38.475146;0.1000002;2.95E-06;38.475146;;;;0.00000295;6.93E-10
57.4999;6.89E-10;38.625524;0.1;2.99E-06;38.625524;;;;0.00000299;6.89E-10
57.9999;7.01E-10;38.77581;0.0999998;3.03E-06;38.77581;;;;0.00000303;7.01E-10
58.5;6.92E-10;38.959844;0.1;3.06E-06;38.959844;;;;0.00000306;6.92E-10
59;6.97E-10;39.110141;0.0999999;3.10E-06;39.110141;;;;0.0000031;6.97E-10
59.5;7.05E-10;39.26066;0.1000001;3.15E-06;39.26066;;;;0.00000315;7.05E-10
60;7.11E-10;39.410979;0.1;3.17E-06;39.410979;;;;0.00000317;7.11E-10
60;6.86E-10;39.548875;0.1000001;3.17E-06;39.548875;;;;0.00000317;6.86E-10
59.5;6.51E-10;39.699184;0.0999999;3.12E-06;39.699184;;;;0.00000312;6.51E-10
59;6.18E-10;39.849599;0.0999998;3.07E-06;39.849599;;;;0.00000307;6.18E-10
58.4999;6.02E-10;40.000039;0.1;3.03E-06;40.000039;;;;0.00000303;6.02E-10
57.9999;5.79E-10;40.150327;0.1000002;2.98E-06;40.150327;;;;0.00000298;5.79E-10
57.5;5.48E-10;40.300701;0.0999999;2.94E-06;40.300701;;;;0.00000294;5.48E-10
56.9999;5.39E-10;40.489035;0.1;2.89E-06;40.489035;;;;0.00000289;5.39E-10
56.4999;5.10E-10;40.639416;0.1;2.85E-06;40.639416;;;;0.00000285;5.1E-10
56;4.70E-10;40.789771;0.1000001;2.79E-06;40.789771;;;;0.00000279;4.7E-10
55.4999;4.26E-10;40.966867;0.0999998;2.75E-06;40.966867;;;;0.00000275;4.26E-10
55;4.01E-10;41.117202;0.0999999;2.72E-06;41.117202;;;;0.00000272;4.01E-10
54.5;3.74E-10;41.267664;0.0999997;2.67E-06;41.267664;;;;0.00000267;3.74E-10
53.9999;3.35E-10;41.417871;0.0999999;2.63E-06;41.417871;;;;0.00000263;3.35E-10
53.4999;3.33E-10;41.581676;0.1;2.60E-06;41.581676;;;;0.0000026;3.33E-10
52.9999;3.04E-10;41.732078;0.1000001;2.55E-06;41.732078;;;;0.00000255;3.04E-10
52.4999;2.91E-10;41.882353;0.1;2.51E-06;41.882353;;;;0.00000251;2.91E-10
52;2.81E-10;42.032638;0.0999999;2.46E-06;42.032638;;;;0.00000246;2.81E-10
51.5;2.74E-10;42.183043;0.1000002;2.42E-06;42.183043;;;;0.00000242;2.74E-10
50.9999;2.50E-10;42.333339;0.1;2.37E-06;42.333339;;;;0.00000237;2.5E-10
50.4999;2.53E-10;42.493177;0.0999999;2.33E-06;42.493177;;;;0.00000233;2.53E-10
50;2.53E-10;42.643534;0.0999999;2.29E-06;42.643534;;;;0.00000229;2.53E-10
49.5;2.33E-10;42.793863;0.0999998;2.24E-06;42.793863;;;;0.00000224;2.33E-10
48.9999;2.46E-10;42.971858;0.0999998;2.20E-06;42.971858;;;;0.0000022;2.46E-10
