#scan;iMeasureCycle=1;iMux=0;time=0.144;N=182;LocalTime=21/12/2023 15:06:47;;;;;
#VGate(V);IGate(A);time(s);VDrain(V);IDrain(A);time(s);;;VGate (V);|IDrain|, |IGate| (A);|IGate| (A)
29.9999;1.06E-08;0.298238;-0.500002;-6.36E-09;0.298238;;;29.9999;6.35666E-09;1.058E-08
29.4999;8.20E-09;0.463333;-0.500001;-5.08E-09;0.463333;;;29.4999;5.07736E-09;8.20293E-09
29;7.00E-09;0.639476;-0.500001;-4.45E-09;0.639476;;;29;4.44739E-09;7.00334E-09
28.5;6.26E-09;0.815817;-0.500001;-4.06E-09;0.815817;;;28.5;4.06465E-09;6.26356E-09
27.9999;5.82E-09;1.002138;-0.499999;-3.84E-09;1.002138;;;27.9999;3.83819E-09;5.81585E-09
27.5;5.50E-09;1.178569;-0.499999;-3.68E-09;1.178569;;;27.5;3.68188E-09;5.49903E-09
26.9999;5.21E-09;1.387062;-0.500001;-3.54E-09;1.387062;;;26.9999;3.53503E-09;5.21007E-09
26.4999;5.02E-09;1.590002;-0.5;-3.44E-09;1.590002;;;26.4999;3.44235E-09;5.01797E-09
26;4.82E-09;1.766292;-0.500001;-3.35E-09;1.766292;;;26;3.34606E-09;4.82134E-09
25.4999;4.65E-09;1.942476;-0.500001;-3.27E-09;1.942476;;;25.4999;3.26645E-09;4.64746E-09
24.9999;4.46E-09;2.118831;-0.5;-3.17E-09;2.118831;;;24.9999;3.16626E-09;4.46111E-09
24.4999;4.21E-09;2.295069;-0.500001;-3.03E-09;2.295069;;;24.4999;3.02943E-09;4.20671E-09
23.9999;3.96E-09;2.473693;-0.5;-2.89E-09;2.473693;;;23.9999;2.88844E-09;3.9592E-09
23.5;3.52E-09;2.649873;-0.5;-2.65E-09;2.649873;;;23.5;2.65438E-09;3.5179E-09
22.9999;2.96E-09;2.826062;-0.499999;-2.41E-09;2.826062;;;22.9999;2.40979E-09;2.95957E-09
22.5;2.33E-09;3.008204;-0.5;-2.23E-09;3.008204;;;22.5;2.23235E-09;2.3266E-09
22;1.88E-09;3.184586;-0.499999;-2.31E-09;3.184586;;;22;2.30515E-09;1.8847E-09
21.4999;2.12E-09;3.388664;-0.499999;-2.81E-09;3.388664;;;21.4999;2.81097E-09;2.11716E-09
20.9999;1.92E-09;3.564695;-0.5;-3.06E-09;3.564695;;;20.9999;3.06215E-09;1.92104E-09
20.5;2.14E-09;3.740959;-0.499999;-3.57E-09;3.740959;;;20.5;3.5686E-09;2.1409E-09
20;2.49E-09;3.918407;-0.500001;-4.22E-09;3.918407;;;20;4.21686E-09;2.48807E-09
19.4999;2.71E-09;4.094498;-0.499999;-4.97E-09;4.094498;;;19.4999;4.97162E-09;2.71118E-09
19;3.04E-09;4.270701;-0.499999;-5.98E-09;4.270701;;;19;5.979E-09;3.0372E-09
18.5;3.44E-09;4.446871;-0.5;-7.23E-09;4.446871;;;18.5;7.22833E-09;3.43919E-09
17.9999;3.64E-09;4.623001;-0.499999;-8.64E-09;4.623001;;;17.9999;8.64242E-09;3.64463E-09
17.4999;3.72E-09;4.793007;-0.5;-1.04E-08;4.793007;;;17.4999;1.03531E-08;3.72198E-09
16.9999;3.83E-09;4.965375;-0.499999;-1.25E-08;4.965375;;;16.9999;1.25484E-08;3.83454E-09
16.5;3.81E-09;5.135375;-0.500001;-1.55E-08;5.135375;;;16.5;1.5512E-08;3.81053E-09
16;3.84E-09;5.305479;-0.5;-1.98E-08;5.305479;;;16;1.9756E-08;3.8375E-09
15.4999;3.80E-09;5.477561;-0.499999;-2.57E-08;5.477561;;;15.4999;2.57097E-08;3.79542E-09
15;3.79E-09;5.647683;-0.5;-3.41E-08;5.647683;;;15;3.40551E-08;3.78575E-09
14.5;3.78E-09;5.817858;-0.500001;-4.56E-08;5.817858;;;14.5;4.55668E-08;3.7757E-09
13.9999;3.79E-09;6.011278;-0.500002;-6.12E-08;6.011278;;;13.9999;6.1176E-08;3.79107E-09
13.4999;3.68E-09;6.167025;-0.5;-8.20E-08;6.167025;;;13.4999;8.1973E-08;3.67884E-09
12.9999;3.56E-09;6.316909;-0.5;-1.09E-07;6.316909;;;12.9999;1.08576E-07;3.55691E-09
12.4999;3.54E-09;6.466853;-0.5;-1.41E-07;6.466853;;;12.4999;1.4069E-07;3.54177E-09
12;3.49E-09;6.6167;-0.5;-1.78E-07;6.6167;;;12;1.78416E-07;3.49434E-09
11.5;3.47E-09;6.766456;-0.5;-2.23E-07;6.766456;;;11.5;2.22732E-07;3.47031E-09
11;3.33E-09;6.916303;-0.5;-2.73E-07;6.916303;;;11;2.73209E-07;3.3259E-09
10.4999;3.26E-09;7.066123;-0.5;-3.30E-07;7.066123;;;10.4999;3.29831E-07;3.25738E-09
9.9999;3.18E-09;7.215919;-0.5;-3.92E-07;7.215919;;;9.9999;3.9181E-07;3.17745E-09
9.4999;3.05E-09;7.396743;-0.5;-4.58E-07;7.396743;;;9.4999;4.57931E-07;3.0479E-09
8.9999;2.95E-09;7.54664;-0.5;-5.31E-07;7.54664;;;8.9999;5.30636E-07;2.94566E-09
8.4999;2.81E-09;7.696491;-0.5;-6.07E-07;7.696491;;;8.4999;6.07205E-07;2.81401E-09
7.9999;2.63E-09;7.876693;-0.5;-6.87E-07;7.876693;;;7.9999;6.86964E-07;2.62917E-09
7.4999;2.52E-09;8.02667;-0.5;-7.72E-07;8.02667;;;7.4999;7.71881E-07;2.52056E-09
6.9999;2.41E-09;8.176403;-0.5;-8.60E-07;8.176403;;;6.9999;8.60396E-07;2.41424E-09
6.4999;2.14E-09;8.326235;-0.5;-9.53E-07;8.326235;;;6.4999;9.52978E-07;2.1371E-09
5.9999;2.02E-09;8.501738;-0.5;-1.05E-06;8.501738;;;5.9999;1.04879E-06;2.01609E-09
5.4999;1.75E-09;8.651433;-0.5;-1.15E-06;8.651433;;;5.4999;1.1477E-06;1.75003E-09
4.9999;1.54E-09;8.801264;-0.5;-1.25E-06;8.801264;;;4.9999;1.24984E-06;1.53689E-09
4.5;1.31E-09;8.951103;-0.5;-1.35E-06;8.951103;;;4.5;1.3539E-06;1.30771E-09
4;1.08E-09;9.100992;-0.5;-1.46E-06;9.100992;;;4;1.45902E-06;1.0767E-09
3.5;8.32E-10;9.250849;-0.5;-1.56E-06;9.250849;;;3.5;1.56404E-06;8.3232E-10
3;6.09E-10;9.408661;-0.5;-1.67E-06;9.408661;;;3;1.66678E-06;6.0852E-10
2.5;3.08E-10;9.558562;-0.5;-1.77E-06;9.558562;;;2.5;1.76854E-06;3.0767E-10
2;2.62E-11;9.708648;-0.5;-1.86E-06;9.708648;;;2;1.86413E-06;2.616E-11
1.5;-2.42E-10;9.883418;-0.5;-1.95E-06;9.883418;;;1.5;1.95307E-06;2.416E-10
1;-6.87E-10;10.033375;-0.5;-2.03E-06;10.033375;;;1;2.03346E-06;6.8686E-10
0.5;-9.53E-10;10.183122;-0.5;-2.10E-06;10.183122;;;0.5;2.10219E-06;9.5299E-10
-0.0001;-1.27E-09;10.332901;-0.5;-2.16E-06;10.332901;;;-0.0001;2.15686E-06;1.26741E-09
-0.5;-1.51E-09;10.50333;-0.5;-2.20E-06;10.50333;;;-0.5;2.20041E-06;1.51142E-09
-1.0001;-1.97E-09;10.653157;-0.5;-2.24E-06;10.653157;;;-1.0001;2.23619E-06;1.96654E-09
-1.5001;-2.35E-09;10.803089;-0.5;-2.27E-06;10.803089;;;-1.5001;2.26604E-06;2.35206E-09
-2;-2.69E-09;10.952901;-0.5;-2.29E-06;10.952901;;;-2;2.29066E-06;2.69337E-09
-2.5;-3.06E-09;11.10334;-0.5;-2.31E-06;11.10334;;;-2.5;2.31105E-06;3.0639E-09
-3.0001;-3.43E-09;11.253307;-0.5;-2.33E-06;11.253307;;;-3.0001;2.32868E-06;3.433E-09
-3.5001;-3.80E-09;11.413015;-0.5;-2.34E-06;11.413015;;;-3.5001;2.34282E-06;3.8018E-09
-4.0001;-4.18E-09;11.56281;-0.5;-2.35E-06;11.56281;;;-4.0001;2.35412E-06;4.18312E-09
-4.5;-4.62E-09;11.7126;-0.5;-2.36E-06;11.7126;;;-4.5;2.36334E-06;4.61713E-09
-5.0001;-4.90E-09;11.886904;-0.5;-2.37E-06;11.886904;;;-5.0001;2.36918E-06;4.90388E-09
-5.5;-5.31E-09;12.036843;-0.5;-2.37E-06;12.036843;;;-5.5;2.37441E-06;5.30622E-09
-6.0001;-5.82E-09;12.18667;-0.5;-2.38E-06;12.18667;;;-6.0001;2.37745E-06;5.81842E-09
-6.5001;-6.14E-09;12.336599;-0.5;-2.38E-06;12.336599;;;-6.5001;2.37835E-06;6.1433E-09
-7;-6.56E-09;12.508269;-0.5;-2.38E-06;12.508269;;;-7;2.37799E-06;6.55808E-09
-7.5001;-6.99E-09;12.658069;-0.5;-2.38E-06;12.658069;;;-7.5001;2.37533E-06;6.99257E-09
-8;-7.45E-09;12.807995;-0.5;-2.37E-06;12.807995;;;-8;2.37208E-06;7.45067E-09
-8.5;-7.87E-09;12.957831;-0.5;-2.37E-06;12.957831;;;-8.5;2.36702E-06;7.86687E-09
-9;-8.27E-09;13.108237;-0.5;-2.36E-06;13.108237;;;-9;2.3607E-06;8.26626E-09
-9.5001;-8.73E-09;13.258129;-0.5;-2.35E-06;13.258129;;;-9.5001;2.35363E-06;8.73008E-09
-10.0001;-9.12E-09;13.412403;-0.5;-2.35E-06;13.412403;;;-10.0001;2.34543E-06;9.1182E-09
-10.5;-9.56E-09;13.556285;-0.5;-2.34E-06;13.556285;;;-10.5;2.33697E-06;9.5646E-09
-11;-1.00E-08;13.700118;-0.5;-2.33E-06;13.700118;;;-11;2.32732E-06;9.9964E-09
-11.5001;-1.05E-08;13.843966;-0.5;-2.32E-06;13.843966;;;-11.5001;2.31663E-06;1.05277E-08
-12;-1.08E-08;14.007034;-0.5;-2.31E-06;14.007034;;;-12;2.30538E-06;1.08317E-08
-12.5;-1.14E-08;14.150906;-0.5;-2.29E-06;14.150906;;;-12.5;2.29377E-06;1.13796E-08
-13;-1.18E-08;14.294778;-0.5;-2.28E-06;14.294778;;;-13;2.28155E-06;1.17673E-08
-13.5;-1.23E-08;14.43863;-0.5;-2.27E-06;14.43863;;;-13.5;2.26846E-06;1.23078E-08
-14;-1.28E-08;14.582527;-0.5;-2.25E-06;14.582527;;;-14;2.25467E-06;1.27888E-08
-14.5;-1.32E-08;14.726573;-0.5;-2.24E-06;14.726573;;;-14.5;2.24065E-06;1.31916E-08
-15;-1.36E-08;14.895494;-0.5;-2.23E-06;14.895494;;;-15;2.22543E-06;1.35958E-08
-15;-1.34E-08;15.019071;-0.5;-2.22E-06;15.019071;;;-15;2.2246E-06;1.34288E-08
-14.4999;-1.26E-08;15.162902;-0.5;-2.24E-06;15.162902;;;-14.4999;2.23546E-06;1.26313E-08
-14;-1.20E-08;15.306749;-0.5;-2.25E-06;15.306749;;;-14;2.24615E-06;1.19875E-08
-13.5;-1.13E-08;15.450681;-0.5;-2.26E-06;15.450681;;;-13.5;2.25684E-06;1.13222E-08
-13;-1.08E-08;15.594586;-0.5;-2.27E-06;15.594586;;;-13;2.26629E-06;1.07728E-08
-12.5;-1.02E-08;15.738433;-0.5;-2.27E-06;15.738433;;;-12.5;2.27467E-06;1.02228E-08
-12.0001;-9.65E-09;15.915264;-0.5;-2.28E-06;15.915264;;;-12.0001;2.2827E-06;9.6524E-09
-11.5;-9.13E-09;16.059179;-0.5;-2.29E-06;16.059179;;;-11.5;2.29033E-06;9.1268E-09
-11;-8.48E-09;16.209001;-0.5;-2.30E-06;16.209001;;;-11;2.29645E-06;8.48171E-09
-10.5001;-8.05E-09;16.35881;-0.5;-2.30E-06;16.35881;;;-10.5001;2.30221E-06;8.04824E-09
-10;-7.55E-09;16.518032;-0.5;-2.31E-06;16.518032;;;-10;2.30652E-06;7.54896E-09
-9.5;-7.09E-09;16.667779;-0.5;-2.31E-06;16.667779;;;-9.5;2.30965E-06;7.09451E-09
-9.0001;-6.55E-09;16.817701;-0.5;-2.31E-06;16.817701;;;-9.0001;2.31192E-06;6.55412E-09
-8.5;-6.09E-09;16.967525;-0.5;-2.31E-06;16.967525;;;-8.5;2.31324E-06;6.09311E-09
-8;-5.66E-09;17.117343;-0.5;-2.31E-06;17.117343;;;-8;2.31194E-06;5.66142E-09
-7.5001;-5.20E-09;17.267137;-0.5;-2.31E-06;17.267137;;;-7.5001;2.30922E-06;5.20099E-09
-7.0001;-4.77E-09;17.42891;-0.5;-2.31E-06;17.42891;;;-7.0001;2.30507E-06;4.7671E-09
-6.5;-4.36E-09;17.578741;-0.5;-2.30E-06;17.578741;;;-6.5;2.29924E-06;4.35672E-09
-6.0001;-3.90E-09;17.728567;-0.5;-2.29E-06;17.728567;;;-6.0001;2.29136E-06;3.8951E-09
-5.5;-3.55E-09;17.903894;-0.5;-2.28E-06;17.903894;;;-5.5;2.28082E-06;3.54819E-09
-5.0001;-3.12E-09;18.053828;-0.5;-2.27E-06;18.053828;;;-5.0001;2.26909E-06;3.11661E-09
-4.5;-2.76E-09;18.203569;-0.5;-2.25E-06;18.203569;;;-4.5;2.25418E-06;2.75853E-09
-4.0001;-2.36E-09;18.353465;-0.5;-2.24E-06;18.353465;;;-4.0001;2.23605E-06;2.35598E-09
-3.5001;-2.00E-09;18.522987;-0.5;-2.22E-06;18.522987;;;-3.5001;2.21599E-06;2.00472E-09
-3;-1.65E-09;18.672811;-0.5;-2.19E-06;18.672811;;;-3;2.19171E-06;1.6466E-09
-2.5;-1.21E-09;18.822723;-0.5;-2.16E-06;18.822723;;;-2.5;2.16408E-06;1.21481E-09
-2;-8.73E-10;18.972545;-0.5;-2.13E-06;18.972545;;;-2;2.13196E-06;8.7263E-10
-1.5;-5.22E-10;19.123062;-0.5;-2.09E-06;19.123062;;;-1.5;2.09483E-06;5.2209E-10
-1;-2.48E-10;19.272941;-0.5;-2.05E-06;19.272941;;;-1;2.05185E-06;2.4811E-10
-0.5001;2.02E-11;19.433626;-0.5;-2.00E-06;19.433626;;;-0.5001;2.00215E-06;2.023E-11
0;4.18E-10;19.583388;-0.5;-1.94E-06;19.583388;;;0;1.9432E-06;4.1806E-10
0.4999;7.08E-10;19.733484;-0.5;-1.87E-06;19.733484;;;0.4999;1.87208E-06;7.0754E-10
0.9999;9.13E-10;19.909046;-0.5;-1.79E-06;19.909046;;;0.9999;1.79011E-06;9.1252E-10
1.5;1.20E-09;20.059072;-0.5;-1.70E-06;20.059072;;;1.5;1.69698E-06;1.20108E-09
1.9999;1.50E-09;20.208773;-0.5;-1.60E-06;20.208773;;;1.9999;1.59788E-06;1.49562E-09
2.4999;1.77E-09;20.358666;-0.5;-1.50E-06;20.358666;;;2.4999;1.49506E-06;1.76903E-09
2.9999;1.97E-09;20.527968;-0.5;-1.39E-06;20.527968;;;2.9999;1.39176E-06;1.97305E-09
3.4999;2.16E-09;20.677711;-0.5;-1.29E-06;20.677711;;;3.4999;1.28824E-06;2.16175E-09
3.9999;2.43E-09;20.827637;-0.5;-1.19E-06;20.827637;;;3.9999;1.18572E-06;2.42528E-09
4.4999;2.60E-09;20.97745;-0.5;-1.08E-06;20.97745;;;4.4999;1.08459E-06;2.60181E-09
5;2.78E-09;21.127998;-0.5;-9.86E-07;21.127998;;;5;9.8575E-07;2.78172E-09
5.5;3.04E-09;21.277863;-0.5;-8.89E-07;21.277863;;;5.5;8.8935E-07;3.03809E-09
6;3.05E-09;21.441697;-0.5;-7.97E-07;21.441697;;;6;7.96551E-07;3.0473E-09
6.4999;3.27E-09;21.597372;-0.5;-7.08E-07;21.597372;;;6.4999;7.07692E-07;3.26886E-09
7;3.33E-09;21.753071;-0.5;-6.23E-07;21.753071;;;7;6.23384E-07;3.32801E-09
7.4999;3.45E-09;21.942404;-0.5;-5.44E-07;21.942404;;;7.4999;5.443E-07;3.44878E-09
8;3.60E-09;22.098163;-0.5;-4.69E-07;22.098163;;;8;4.69113E-07;3.59624E-09
8.4999;3.61E-09;22.254067;-0.5;-3.99E-07;22.254067;;;8.4999;3.99058E-07;3.60976E-09
8.9999;3.67E-09;22.443725;-0.5;-3.36E-07;22.443725;;;8.9999;3.35934E-07;3.67405E-09
9.5;3.74E-09;22.599395;-0.5;-2.77E-07;22.599395;;;9.5;2.77282E-07;3.7443E-09
9.9999;3.86E-09;22.755366;-0.5;-2.25E-07;22.755366;;;9.9999;2.25247E-07;3.86047E-09
10.4999;3.92E-09;22.944939;-0.5;-1.81E-07;22.944939;;;10.4999;1.80717E-07;3.91706E-09
11;4.01E-09;23.100692;-0.5;-1.42E-07;23.100692;;;11;1.42044E-07;4.01454E-09
11.5;3.98E-09;23.250738;-0.5;-1.10E-07;23.250738;;;11.5;1.10072E-07;3.981E-09
11.9999;4.00E-09;23.432413;-0.5;-8.48E-08;23.432413;;;11.9999;8.4797E-08;3.99891E-09
12.5;4.08E-09;23.599535;-0.499998;-6.45E-08;23.599535;;;12.5;6.44784E-08;4.08462E-09
12.9999;4.14E-09;23.76965;-0.499999;-4.87E-08;23.76965;;;12.9999;4.86913E-08;4.13781E-09
13.5001;4.14E-09;23.972192;-0.499998;-3.70E-08;23.972192;;;13.5001;3.6955E-08;4.14187E-09
13.9999;4.11E-09;24.142261;-0.500001;-2.81E-08;24.142261;;;13.9999;2.80653E-08;4.10671E-09
14.4999;4.22E-09;24.312308;-0.500001;-2.18E-08;24.312308;;;14.4999;2.17644E-08;4.21798E-09
14.9999;4.28E-09;24.482492;-0.500001;-1.72E-08;24.482492;;;14.9999;1.72373E-08;4.27878E-09
15.4999;4.26E-09;24.652533;-0.499998;-1.39E-08;24.652533;;;15.4999;1.39254E-08;4.26363E-09
15.9999;4.33E-09;24.822613;-0.5;-1.16E-08;24.822613;;;15.9999;1.15598E-08;4.32842E-09
16.4999;4.45E-09;24.992721;-0.499999;-9.81E-09;24.992721;;;16.4999;9.814E-09;4.45155E-09
16.9999;4.53E-09;25.168895;-0.5;-8.43E-09;25.168895;;;16.9999;8.428E-09;4.53293E-09
17.4999;4.72E-09;25.344979;-0.5;-7.37E-09;25.344979;;;17.4999;7.3722E-09;4.71992E-09
17.9999;4.95E-09;25.521034;-0.5;-6.55E-09;25.521034;;;17.9999;6.55363E-09;4.95012E-09
18.4999;5.22E-09;25.697025;-0.500001;-5.93E-09;25.697025;;;18.4999;5.92922E-09;5.2233E-09
18.9999;5.55E-09;25.873229;-0.5;-5.48E-09;25.873229;;;18.9999;5.47999E-09;5.55184E-09
19.5;5.84E-09;26.06899;-0.500001;-5.14E-09;26.06899;;;19.5;5.14263E-09;5.83683E-09
20;6.16E-09;26.245016;-0.500001;-4.93E-09;26.245016;;;20;4.92567E-09;6.15626E-09
20.4999;5.95E-09;26.45529;-0.500001;-4.56E-09;26.45529;;;20.4999;4.55821E-09;5.94979E-09
21;6.52E-09;26.631296;-0.5;-4.69E-09;26.631296;;;21;4.6888E-09;6.51524E-09
21.4999;6.65E-09;26.807444;-0.500002;-4.64E-09;26.807444;;;21.4999;4.63832E-09;6.64792E-09
21.9999;6.65E-09;26.985021;-0.5;-4.56E-09;26.985021;;;21.9999;4.55662E-09;6.64557E-09
22.4999;6.56E-09;27.161203;-0.5;-4.44E-09;27.161203;;;22.4999;4.44288E-09;6.55505E-09
23;6.41E-09;27.337621;-0.5;-4.32E-09;27.337621;;;23;4.31589E-09;6.41312E-09
23.4999;6.21E-09;27.513828;-0.500001;-4.16E-09;27.513828;;;23.4999;4.16179E-09;6.20519E-09
24;6.02E-09;27.69004;-0.500002;-4.03E-09;27.69004;;;24;4.02962E-09;6.01523E-09
24.4999;5.83E-09;27.866293;-0.5;-3.91E-09;27.866293;;;24.4999;3.90637E-09;5.82802E-09
25;5.62E-09;28.044828;-0.500002;-3.77E-09;28.044828;;;25;3.77028E-09;5.62409E-09
25.4999;5.47E-09;28.221052;-0.5;-3.67E-09;28.221052;;;25.4999;3.67393E-09;5.46535E-09
26;5.25E-09;28.421032;-0.5;-3.55E-09;28.421032;;;26;3.5502E-09;5.25439E-09
26.5;5.16E-09;28.597393;-0.500001;-3.50E-09;28.597393;;;26.5;3.49674E-09;5.16467E-09
26.9999;5.07E-09;28.773704;-0.5;-3.44E-09;28.773704;;;26.9999;3.44192E-09;5.069E-09
27.4999;4.93E-09;28.984115;-0.500001;-3.37E-09;28.984115;;;27.4999;3.36569E-09;4.93047E-09
28;4.87E-09;29.160283;-0.499999;-3.34E-09;29.160283;;;28;3.33562E-09;4.87461E-09
28.5;4.77E-09;29.336492;-0.5;-3.28E-09;29.336492;;;28.5;3.28086E-09;4.77346E-09
28.9999;4.74E-09;29.512654;-0.500001;-3.26E-09;29.512654;;;28.9999;3.25847E-09;4.73665E-09
29.4999;4.70E-09;29.688866;-0.500001;-3.24E-09;29.688866;;;29.4999;3.23927E-09;4.70495E-09
30;4.65E-09;29.865184;-0.5;-3.21E-09;29.865184;;;30;3.21064E-09;4.6507E-09
