#scan;iMeasureCycle=1;iMux=0;time=0.127;N=142;LocalTime=21/12/2023 14:44:48;;;;;;;;;
#VGate(V);IGate(A);time(s);VDrain(V);IDrain(A);time(s);;;VGate (V);|IDrain|, |IGate| (A);|IGate| (A);|IDrain|^1/2 (A^1/2);;;IDS_off_avg
20;1.55E-08;0.281324;-25.0001;-5.51E-10;0.281324;;;20;5.51E-10;1.55E-08;2.35E-05;;;3.13E-10
19.5;1.15E-08;0.404006;-25.0001;-4.38E-10;0.404006;;;19.5;4.38E-10;1.15E-08;2.09E-05;;;
19;9.23E-09;0.526387;-25.0001;-3.69E-10;0.526387;;;19;3.69E-10;9.23E-09;1.92E-05;;;IDS_max
18.5;7.58E-09;0.663554;-25.0001;-3.18E-10;0.663554;;;18.5;3.18E-10;7.58E-09;1.78E-05;;;8.99E-08
17.99999;6.27E-09;0.829348;-25.0001;-2.77E-10;0.829348;;;17.99999;2.77E-10;6.27E-09;1.66E-05;;;
17.5;5.24E-09;0.978054;-25.0001;-2.53E-10;0.978054;;;17.5;2.53E-10;5.24E-09;1.59E-05;;;ON/OFF
17;4.26E-09;1.126747;-25.0001;-2.42E-10;1.126747;;;17;2.42E-10;4.26E-09;1.56E-05;;;2.87E+02
16.5;3.23E-09;1.275319;-25.0001;-2.29E-10;1.275319;;;16.5;2.29E-10;3.23E-09;1.51E-05;;;
16;2.06E-09;1.423934;-25.0001;-2.25E-10;1.423934;;;16;2.25E-10;2.06E-09;1.50E-05;;;
15.5;8.50E-10;1.572585;-25.0001;-2.30E-10;1.572585;;;15.5;2.30E-10;8.50E-10;1.52E-05;;;
15;-2.66E-10;1.721179;-25.0001;-2.42E-10;1.721179;;;15;2.42E-10;2.66E-10;1.56E-05;;;
14.5;-1.20E-09;1.869836;-25.0001;-2.63E-10;1.869836;;;14.5;2.63E-10;1.20E-09;1.62E-05;;;
14;-2.15E-09;2.018509;-25.0001;-3.10E-10;2.018509;;;14;3.10E-10;2.15E-09;1.76E-05;;;
13.49999;-3.26E-09;2.167099;-25.0001;-3.89E-10;2.167099;;;13.49999;3.89E-10;3.26E-09;1.97E-05;;;
13;-3.80E-09;2.332099;-25.0001;-5.34E-10;2.332099;;;13;5.34E-10;3.80E-09;2.31E-05;;;
12.5;-4.71E-09;2.480754;-25.0001;-7.27E-10;2.480754;;;12.5;7.27E-10;4.71E-09;2.70E-05;;;
12;-4.41E-09;2.629333;-25.0001;-1.00E-09;2.629333;;;12;1.00E-09;4.41E-09;3.17E-05;;;
11.49999;-3.01E-09;2.777913;-25.0001;-1.36E-09;2.777913;;;11.49999;1.36E-09;3.01E-09;3.69E-05;;;
11;-1.30E-09;2.926532;-25.0001;-1.78E-09;2.926532;;;11;1.78E-09;1.30E-09;4.22E-05;;;
10.5;2.19E-10;3.075192;-25.0001;-2.24E-09;3.075192;;;10.5;2.24E-09;2.19E-10;4.73E-05;;;
9.99999;1.34E-09;3.223806;-25.0001;-2.73E-09;3.223806;;;9.99999;2.73E-09;1.34E-09;5.22E-05;;;
9.5;2.03E-09;3.372395;-25.0001;-3.26E-09;3.372395;;;9.5;3.26E-09;2.03E-09;5.71E-05;;;
9;2.37E-09;3.520998;-25.0001;-3.87E-09;3.520998;;;9;3.87E-09;2.37E-09;6.22E-05;;;
8.49999;2.52E-09;3.669562;-25.0001;-4.54E-09;3.669562;;;8.49999;4.54E-09;2.52E-09;6.74E-05;;;
8;2.62E-09;3.835781;-25.0001;-5.31E-09;3.835781;;;8;5.31E-09;2.62E-09;7.29E-05;;;
7.49999;2.52E-09;3.984455;-25.0001;-6.15E-09;3.984455;;;7.49999;6.15E-09;2.52E-09;7.84E-05;;;
7;2.44E-09;4.13305;-25.0001;-7.08E-09;4.13305;;;7;7.08E-09;2.44E-09;8.41E-05;;;
6.5;2.35E-09;4.281652;-25.0001;-8.09E-09;4.281652;;;6.5;8.09E-09;2.35E-09;9.00E-05;;;
5.99999;2.23E-09;4.430293;-25.0001;-9.25E-09;4.430293;;;5.99999;9.25E-09;2.23E-09;9.62E-05;;;
5.49999;2.11E-09;4.600492;-25;-1.05E-08;4.600492;;;5.49999;1.05E-08;2.11E-09;0.000102235;;;
4.99999;1.95E-09;4.75032;-25;-1.18E-08;4.75032;;;4.99999;1.18E-08;1.95E-09;0.000108471;;;
4.5;1.78E-09;4.900108;-25;-1.32E-08;4.900108;;;4.5;1.32E-08;1.78E-09;0.000114987;;;
3.99999;1.60E-09;5.049933;-25;-1.48E-08;5.049933;;;3.99999;1.48E-08;1.60E-09;0.000121492;;;
3.49999;1.41E-09;5.199815;-25;-1.65E-08;5.199815;;;3.49999;1.65E-08;1.41E-09;0.000128351;;;
2.99999;1.22E-09;5.376712;-25;-1.83E-08;5.376712;;;2.99999;1.83E-08;1.22E-09;0.000135159;;;
2.49999;9.73E-10;5.526607;-25;-2.02E-08;5.526607;;;2.49999;2.02E-08;9.73E-10;0.000142255;;;
2;7.32E-10;5.676361;-25;-2.23E-08;5.676361;;;2;2.23E-08;7.32E-10;0.000149425;;;
1.5;4.94E-10;5.850476;-25;-2.45E-08;5.850476;;;1.5;2.45E-08;4.94E-10;0.000156648;;;
0.99999;2.04E-10;6.000327;-25;-2.69E-08;6.000327;;;0.99999;2.69E-08;2.04E-10;0.000163897;;;
0.5;-7.15E-11;6.150124;-25;-2.93E-08;6.150124;;;0.5;2.93E-08;7.15E-11;0.000171107;;;
0;-3.55E-10;6.299928;-25;-3.17E-08;6.299928;;;0;3.17E-08;3.55E-10;0.000178169;;;
-0.5;-6.43E-10;6.471789;-25;-3.43E-08;6.471789;;;-0.5;3.43E-08;6.43E-10;0.00018515;;;
-1;-9.54E-10;6.621558;-25;-3.68E-08;6.621558;;;-1;3.68E-08;9.54E-10;0.000191939;;;
-1.50001;-1.27E-09;6.771443;-25;-3.94E-08;6.771443;;;-1.50001;3.94E-08;1.27E-09;0.000198446;;;
-2;-1.59E-09;6.921269;-25;-4.19E-08;6.921269;;;-2;4.19E-08;1.59E-09;0.000204807;;;
-2.50001;-1.92E-09;7.071915;-25;-4.45E-08;7.071915;;;-2.50001;4.45E-08;1.92E-09;0.000210917;;;
-3;-2.26E-09;7.221831;-25;-4.70E-08;7.221831;;;-3;4.70E-08;2.26E-09;0.000216714;;;
-3.5;-2.58E-09;7.381513;-25;-4.95E-08;7.381513;;;-3.5;4.95E-08;2.58E-09;0.000222474;;;
-4;-2.94E-09;7.531363;-25;-5.20E-08;7.531363;;;-4;5.20E-08;2.94E-09;0.000227987;;;
-4.50001;-3.31E-09;7.681086;-25;-5.44E-08;7.681086;;;-4.50001;5.44E-08;3.31E-09;0.000233328;;;
-5;-3.64E-09;7.855195;-25;-5.68E-08;7.855195;;;-5;5.68E-08;3.64E-09;0.000238372;;;
-5.50001;-4.01E-09;8.005141;-25;-5.92E-08;8.005141;;;-5.50001;5.92E-08;4.01E-09;0.000243265;;;
-6.00001;-4.37E-09;8.154934;-25;-6.14E-08;8.154934;;;-6.00001;6.14E-08;4.37E-09;0.000247853;;;
-6.5;-4.76E-09;8.30477;-25;-6.37E-08;8.30477;;;-6.5;6.37E-08;4.76E-09;0.000252306;;;
-7;-5.13E-09;8.477769;-25;-6.58E-08;8.477769;;;-7;6.58E-08;5.13E-09;0.00025655;;;
-7.5;-5.50E-09;8.627585;-25;-6.79E-08;8.627585;;;-7.5;6.79E-08;5.50E-09;0.000260659;;;
-8;-5.88E-09;8.777446;-25;-7.00E-08;8.777446;;;-8;7.00E-08;5.88E-09;0.000264523;;;
-8.5;-6.27E-09;8.927514;-25;-7.19E-08;8.927514;;;-8.5;7.19E-08;6.27E-09;0.000268217;;;
-9.00001;-6.65E-09;9.077458;-25;-7.38E-08;9.077458;;;-9.00001;7.38E-08;6.65E-09;0.000271725;;;
-9.5;-7.03E-09;9.22733;-25;-7.56E-08;9.22733;;;-9.5;7.56E-08;7.03E-09;0.000274973;;;
-10;-7.42E-09;9.386358;-25;-7.73E-08;9.386358;;;-10;7.73E-08;7.42E-09;0.000278103;;;
-10.5;-7.81E-09;9.536235;-25;-7.90E-08;9.536235;;;-10.5;7.90E-08;7.81E-09;0.000281058;;;
-11.00001;-8.20E-09;9.686043;-25;-8.05E-08;9.686043;;;-11.00001;8.05E-08;8.20E-09;0.000283808;;;
-11.50001;-8.57E-09;9.860319;-25;-8.20E-08;9.860319;;;-11.50001;8.20E-08;8.57E-09;0.000286398;;;
-12;-9.00E-09;10.010259;-25;-8.34E-08;10.010259;;;-12;8.34E-08;9.00E-09;0.000288746;;;
-12.50001;-9.42E-09;10.154096;-25;-8.47E-08;10.154096;;;-12.50001;8.47E-08;9.42E-09;0.000291078;;;
-13.00001;-9.83E-09;10.298002;-25;-8.59E-08;10.298002;;;-13.00001;8.59E-08;9.83E-09;0.000293121;;;
-13.5;-1.02E-08;10.441854;-25;-8.71E-08;10.441854;;;-13.5;8.71E-08;1.02E-08;0.000295092;;;
-14;-1.07E-08;10.585791;-25;-8.81E-08;10.585791;;;-14;8.81E-08;1.07E-08;0.000296817;;;
-14.5;-1.11E-08;10.729673;-25;-8.92E-08;10.729673;;;-14.5;8.92E-08;1.11E-08;0.000298596;;;
-15;-1.15E-08;10.884322;-25;-8.99E-08;10.884322;;;-15;8.99E-08;1.15E-08;0.000299883;;;
-15;-1.13E-08;11.007894;-25;-8.99E-08;11.007894;;;-15;8.99E-08;1.13E-08;0.000299899;;;
-14.5;-1.07E-08;11.151717;-25;-8.89E-08;11.151717;;;-14.5;8.89E-08;1.07E-08;0.000298195;;;
-14;-1.01E-08;11.295612;-25;-8.79E-08;11.295612;;;-14;8.79E-08;1.01E-08;0.00029648;;;
-13.50001;-9.54E-09;11.43947;-25;-8.69E-08;11.43947;;;-13.50001;8.69E-08;9.54E-09;0.000294747;;;
-13.00001;-9.05E-09;11.589359;-25;-8.57E-08;11.589359;;;-13.00001;8.57E-08;9.05E-09;0.000292672;;;
-12.5;-8.58E-09;11.739215;-25;-8.44E-08;11.739215;;;-12.5;8.44E-08;8.58E-09;0.000290503;;;
-12.00001;-8.12E-09;11.89372;-25;-8.30E-08;11.89372;;;-12.00001;8.30E-08;8.12E-09;0.000288043;;;
-11.50001;-7.66E-09;12.043644;-25;-8.15E-08;12.043644;;;-11.50001;8.15E-08;7.66E-09;0.000285489;;;
-11;-7.21E-09;12.193375;-25;-7.99E-08;12.193375;;;-11;7.99E-08;7.21E-09;0.000282671;;;
-10.5;-6.79E-09;12.367898;-25;-7.83E-08;12.367898;;;-10.5;7.83E-08;6.79E-09;0.000279762;;;
-10;-6.35E-09;12.517732;-25;-7.65E-08;12.517732;;;-10;7.65E-08;6.35E-09;0.000276657;;;
-9.5;-5.92E-09;12.6675;-25;-7.48E-08;12.6675;;;-9.5;7.48E-08;5.92E-09;0.000273413;;;
-9.00001;-5.52E-09;12.817364;-25;-7.29E-08;12.817364;;;-9.00001;7.29E-08;5.52E-09;0.000270004;;;
-8.5;-5.12E-09;12.987798;-25;-7.09E-08;12.987798;;;-8.5;7.09E-08;5.12E-09;0.000266264;;;
-8.00001;-4.71E-09;13.137625;-25;-6.89E-08;13.137625;;;-8.00001;6.89E-08;4.71E-09;0.000262444;;;
-7.5;-4.33E-09;13.287485;-25;-6.67E-08;13.287485;;;-7.5;6.67E-08;4.33E-09;0.000258343;;;
-7.00001;-3.95E-09;13.437325;-25;-6.45E-08;13.437325;;;-7.00001;6.45E-08;3.95E-09;0.000254063;;;
-6.5;-3.59E-09;13.58783;-25;-6.23E-08;13.58783;;;-6.5;6.23E-08;3.59E-09;0.000249597;;;
-6.00001;-3.22E-09;13.737698;-25;-5.99E-08;13.737698;;;-6.00001;5.99E-08;3.22E-09;0.000244835;;;
-5.50001;-2.88E-09;13.898028;-25;-5.76E-08;13.898028;;;-5.50001;5.76E-08;2.88E-09;0.000240017;;;
-5.00001;-2.53E-09;14.048012;-25;-5.52E-08;14.048012;;;-5.00001;5.52E-08;2.53E-09;0.00023488;;;
-4.50001;-2.18E-09;14.197823;-25;-5.27E-08;14.197823;;;-4.50001;5.27E-08;2.18E-09;0.000229518;;;
-4.00001;-1.86E-09;14.372487;-25;-5.02E-08;14.372487;;;-4.00001;5.02E-08;1.86E-09;0.000224017;;;
-3.5;-1.52E-09;14.522322;-25;-4.76E-08;14.522322;;;-3.5;4.76E-08;1.52E-09;0.000218239;;;
-3;-1.21E-09;14.672125;-25;-4.50E-08;14.672125;;;-3;4.50E-08;1.21E-09;0.000212243;;;
-2.50001;-8.95E-10;14.821956;-25;-4.25E-08;14.821956;;;-2.50001;4.25E-08;8.95E-10;0.000206066;;;
-2.00001;-6.00E-10;14.992839;-25;-3.99E-08;14.992839;;;-2.00001;3.99E-08;6.00E-10;0.000199732;;;
-1.5;-3.16E-10;15.142682;-25;-3.73E-08;15.142682;;;-1.5;3.73E-08;3.16E-10;0.000193167;;;
-1;-4.48E-11;15.292561;-25;-3.47E-08;15.292561;;;-1;3.47E-08;4.48E-11;0.000186334;;;
-0.50001;2.25E-10;15.442398;-25;-3.22E-08;15.442398;;;-0.50001;3.22E-08;2.25E-10;0.000179332;;;
0;4.75E-10;15.592801;-25;-2.97E-08;15.592801;;;0;2.97E-08;4.75E-10;0.00017222;;;
0.49999;7.12E-10;15.742697;-25;-2.72E-08;15.742697;;;0.49999;2.72E-08;7.12E-10;0.000165039;;;
0.99999;9.33E-10;15.902955;-25;-2.49E-08;15.902955;;;0.99999;2.49E-08;9.33E-10;0.000157816;;;
1.5;1.17E-09;16.052829;-25;-2.27E-08;16.052829;;;1.5;2.27E-08;1.17E-09;0.000150575;;;
1.99999;1.37E-09;16.202634;-25;-2.06E-08;16.202634;;;1.99999;2.06E-08;1.37E-09;0.000143511;;;
2.49999;1.55E-09;16.377455;-25;-1.86E-08;16.377455;;;2.49999;1.86E-08;1.55E-09;0.000136439;;;
3.00001;1.74E-09;16.527324;-25;-1.67E-08;16.527324;;;3.00001;1.67E-08;1.74E-09;0.000129414;;;
3.49999;1.91E-09;16.677226;-25;-1.50E-08;16.677226;;;3.49999;1.50E-08;1.91E-09;0.000122574;;;
4;2.08E-09;16.827047;-25;-1.34E-08;16.827047;;;4;1.34E-08;2.08E-09;0.000115852;;;
4.5;2.22E-09;16.99772;-25;-1.20E-08;16.99772;;;4.5;1.20E-08;2.22E-09;0.000109363;;;
4.99999;2.36E-09;17.147617;-25;-1.06E-08;17.147617;;;4.99999;1.06E-08;2.36E-09;0.000103122;;;
5.49999;2.49E-09;17.297489;-25;-9.41E-09;17.297489;;;5.49999;9.41E-09;2.49E-09;9.70E-05;;;
6;2.58E-09;17.462392;-25;-8.28E-09;17.462392;;;6;8.28E-09;2.58E-09;9.10E-05;;;
6.5;2.72E-09;17.611036;-25;-7.24E-09;17.611036;;;6.5;7.24E-09;2.72E-09;8.51E-05;;;
6.99999;2.87E-09;17.759716;-25;-6.31E-09;17.759716;;;6.99999;6.31E-09;2.87E-09;7.95E-05;;;
7.5;3.03E-09;17.908371;-25;-5.47E-09;17.908371;;;7.5;5.47E-09;3.03E-09;7.40E-05;;;
8;3.25E-09;18.056967;-25;-4.72E-09;18.056967;;;8;4.72E-09;3.25E-09;6.87E-05;;;
8.49999;3.59E-09;18.205641;-25;-4.04E-09;18.205641;;;8.49999;4.04E-09;3.59E-09;6.36E-05;;;
9;3.71E-09;18.371699;-25;-3.44E-09;18.371699;;;9;3.44E-09;3.71E-09;5.87E-05;;;
9.50001;4.81E-09;18.520424;-25;-2.94E-09;18.520424;;;9.50001;2.94E-09;4.81E-09;5.42E-05;;;
10.00001;5.65E-09;18.668974;-25;-2.50E-09;18.668974;;;10.00001;2.50E-09;5.65E-09;5.00E-05;;;
10.50001;6.45E-09;18.817618;-25;-2.13E-09;18.817618;;;10.50001;2.13E-09;6.45E-09;4.61E-05;;;
11;7.15E-09;18.966216;-25;-1.81E-09;18.966216;;;11;1.81E-09;7.15E-09;4.25E-05;;;
11.50001;8.02E-09;19.108907;-25;-1.53E-09;19.108907;;;11.50001;1.53E-09;8.02E-09;3.91E-05;;;
12;8.37E-09;19.251568;-25;-1.29E-09;19.251568;;;12;1.29E-09;8.37E-09;3.59E-05;;;
12.5;8.31E-09;19.404423;-25;-1.07E-09;19.404423;;;12.5;1.07E-09;8.31E-09;3.27E-05;;;
12.99999;8.87E-09;19.547056;-25;-9.08E-10;19.547056;;;12.99999;9.08E-10;8.87E-09;3.01E-05;;;
13.50001;9.11E-09;19.689713;-25;-7.73E-10;19.689713;;;13.50001;7.73E-10;9.11E-09;2.78E-05;;;
14;9.21E-09;19.832363;-25;-6.63E-10;19.832363;;;14;6.63E-10;9.21E-09;2.58E-05;;;
14.5;8.93E-09;19.997953;-25;-5.64E-10;19.997953;;;14.5;5.64E-10;8.93E-09;2.38E-05;;;
14.99999;8.92E-09;20.140568;-25;-4.92E-10;20.140568;;;14.99999;4.92E-10;8.92E-09;2.22E-05;;;
15.49999;8.73E-09;20.28316;-25;-4.31E-10;20.28316;;;15.49999;4.31E-10;8.73E-09;2.08E-05;;;
16.00001;8.30E-09;20.431888;-25;-3.79E-10;20.431888;;;16.00001;3.79E-10;8.30E-09;1.95E-05;;;
16.49999;7.92E-09;20.580558;-25;-3.36E-10;20.580558;;;16.49999;3.36E-10;7.92E-09;1.83E-05;;;
16.99999;7.49E-09;20.729119;-25;-3.00E-10;20.729119;;;16.99999;3.00E-10;7.49E-09;1.73E-05;;;
17.49999;6.78E-09;20.911282;-25;-2.68E-10;20.911282;;;17.49999;2.68E-10;6.78E-09;1.64E-05;;;
17.99999;6.49E-09;21.059959;-25;-2.44E-10;21.059959;;;17.99999;2.44E-10;6.49E-09;1.56E-05;;;
18.5;6.16E-09;21.208514;-25;-2.26E-10;21.208514;;;18.5;2.26E-10;6.16E-09;1.50E-05;;;
19;5.73E-09;21.378996;-25;-2.11E-10;21.378996;;;19;2.11E-10;5.73E-09;1.45E-05;;;
19.49999;5.49E-09;21.527671;-25;-2.00E-10;21.527671;;;19.49999;2.00E-10;5.49E-09;1.41E-05;;;
20;5.25E-09;21.676302;-25;-1.90E-10;21.676302;;;20;1.90E-10;5.25E-09;1.38E-05;;;
