#scan	iMeasureCycle=1	iMux=0	time=0.138	N=142	LocalTime=21/12/2023 14:55:16
#VGate(V)	IGate(A)	time(s)	VDrain(V)	IDrain(A)	time(s)
19.99999	2.17184E-08	0.292139	-0.5	-7.64128E-09	0.292139
19.49999	1.82364E-08	0.462573	-0.5	-6.87753E-09	0.462573
18.99999	1.69073E-08	0.632643	-0.499999	-7.00349E-09	0.632643
18.49999	1.61048E-08	0.802702	-0.5	-7.4871E-09	0.802702
17.99999	1.57432E-08	0.989754	-0.499999	-8.41812E-09	0.989754
17.49999	1.5622E-08	1.153832	-0.499999	-9.8247E-09	1.153832
16.99999	1.53964E-08	1.297699	-0.499999	-1.1639E-08	1.297699
16.49999	1.53327E-08	1.465794	-0.499999	-1.40346E-08	1.465794
15.99999	1.51874E-08	1.609669	-0.499999	-1.71593E-08	1.609669
15.49999	1.50345E-08	1.753481	-0.5	-2.13324E-08	1.753481
14.99999	1.48867E-08	1.897317	-0.5	-2.69245E-08	1.897317
14.49999	1.47645E-08	2.061556	-0.5	-3.42886E-08	2.061556
13.99999	1.44808E-08	2.22571	-0.5	-4.42591E-08	2.22571
13.49999	1.41384E-08	2.37495	-0.5	-5.75182E-08	2.37495
12.99999	1.37705E-08	2.518824	-0.5	-7.4628E-08	2.518824
12.5	1.34325E-08	2.662706	-0.500001	-9.65924E-08	2.662706
11.99999	1.30841E-08	2.812411	-0.5	-1.23912E-07	2.812411
11.49999	1.2641E-08	2.969706	-0.5	-1.57451E-07	2.969706
10.99999	1.22156E-08	3.113587	-0.5	-1.98279E-07	3.113587
10.49999	1.17588E-08	3.257504	-0.5	-2.4633E-07	3.257504
9.99999	1.12609E-08	3.401367	-0.5	-3.02166E-07	3.401367
9.49999	1.07581E-08	3.545255	-0.5	-3.65631E-07	3.545255
8.99999	1.02183E-08	3.689089	-0.5	-4.364E-07	3.689089
8.49999	9.7247E-09	3.857851	-0.5	-5.12983E-07	3.857851
7.99999	9.1219E-09	4.001859	-0.5	-5.96619E-07	4.001859
7.49999	8.47812E-09	4.151692	-0.5	-6.85287E-07	4.151692
6.99999	7.80134E-09	4.30154	-0.5	-7.79243E-07	4.30154
6.5	7.14423E-09	4.451462	-0.5	-8.78229E-07	4.451462
5.99999	6.41806E-09	4.601277	-0.5	-9.81421E-07	4.601277
5.49999	5.71787E-09	4.754385	-0.5	-1.0882E-06	4.754385
5	4.95054E-09	4.904345	-0.5	-1.19695E-06	4.904345
4.5	4.15512E-09	5.054226	-0.5	-1.30784E-06	5.054226
4	3.34192E-09	5.204152	-0.5	-1.41986E-06	5.204152
3.49999	2.60413E-09	5.386856	-0.5	-1.53015E-06	5.386856
2.99999	1.67055E-09	5.536744	-0.5	-1.64003E-06	5.536744
2.5	7.8766E-10	5.686609	-0.5	-1.74528E-06	5.686609
1.99999	-3.759E-11	5.861653	-0.5	-1.84355E-06	5.861653
1.49999	-1.02028E-09	6.011658	-0.5	-1.93588E-06	6.011658
1	-1.96408E-09	6.161476	-0.5	-2.01888E-06	6.161476
0.49999	-2.93144E-09	6.311362	-0.5	-2.0905E-06	6.311362
-1E-05	-3.88698E-09	6.483213	-0.5	-2.14797E-06	6.483213
-0.50001	-4.90036E-09	6.633034	-0.5	-2.19534E-06	6.633034
-1	-5.8913E-09	6.782853	-0.5	-2.23457E-06	6.782853
-1.50001	-6.93138E-09	6.932712	-0.5	-2.26661E-06	6.932712
-2.00001	-7.98634E-09	7.083436	-0.5	-2.29352E-06	7.083436
-2.5	-9.0653E-09	7.227401	-0.5	-2.31667E-06	7.227401
-3.00001	-1.00859E-08	7.38686	-0.5	-2.33564E-06	7.38686
-3.5	-1.1233E-08	7.530847	-0.5	-2.351E-06	7.530847
-4	-1.23347E-08	7.674745	-0.5	-2.36348E-06	7.674745
-4.5	-1.34367E-08	7.818598	-0.5	-2.37383E-06	7.818598
-5	-1.453E-08	7.981024	-0.5	-2.38107E-06	7.981024
-5.5	-1.56725E-08	8.124943	-0.5	-2.38624E-06	8.124943
-6	-1.67906E-08	8.268896	-0.5	-2.39005E-06	8.268896
-6.5	-1.79323E-08	8.412789	-0.5	-2.39171E-06	8.412789
-7	-1.90716E-08	8.556724	-0.5	-2.39125E-06	8.556724
-7.5	-2.02217E-08	8.700564	-0.5	-2.3898E-06	8.700564
-8	-2.12433E-08	8.868893	-0.5	-2.38575E-06	8.868893
-8.5	-2.24568E-08	9.012895	-0.5	-2.38129E-06	9.012895
-9	-2.36175E-08	9.15671	-0.5	-2.37617E-06	9.15671
-9.5	-2.47949E-08	9.300591	-0.5	-2.36887E-06	9.300591
-10	-2.59487E-08	9.444459	-0.5	-2.36042E-06	9.444459
-10.5	-2.71326E-08	9.588437	-0.5	-2.3511E-06	9.588437
-11	-2.83036E-08	9.73226	-0.5	-2.34127E-06	9.73226
-11.5	-2.94187E-08	9.893252	-0.5	-2.32995E-06	9.893252
-12	-3.06246E-08	10.037138	-0.5	-2.3183E-06	10.037138
-12.5	-3.1828E-08	10.180963	-0.5	-2.30567E-06	10.180963
-13	-3.30295E-08	10.324886	-0.5	-2.29272E-06	10.324886
-13.5	-3.42054E-08	10.487171	-0.5	-2.27926E-06	10.487171
-14	-3.54483E-08	10.631093	-0.5	-2.26596E-06	10.631093
-14.5	-3.67288E-08	10.77493	-0.5	-2.25104E-06	10.77493
-15	-3.79849E-08	10.918801	-0.5	-2.23615E-06	10.918801
-15	-3.75709E-08	11.042343	-0.5	-2.23476E-06	11.042343
-14.5	-3.55973E-08	11.186216	-0.5	-2.24697E-06	11.186216
-14	-3.38837E-08	11.330099	-0.5	-2.25849E-06	11.330099
-13.5	-3.22423E-08	11.489553	-0.5	-2.26959E-06	11.489553
-13	-3.06714E-08	11.633458	-0.5	-2.27964E-06	11.633458
-12.5	-2.91402E-08	11.777384	-0.500001	-2.28985E-06	11.777384
-12	-2.7627E-08	11.921258	-0.5	-2.29872E-06	11.921258
-11.5	-2.61672E-08	12.065126	-0.5	-2.30666E-06	12.065126
-11.00001	-2.47249E-08	12.208928	-0.5	-2.31328E-06	12.208928
-10.5	-2.336E-08	12.382093	-0.5	-2.31996E-06	12.382093
-10	-2.18954E-08	12.526042	-0.5	-2.32552E-06	12.526042
-9.5	-2.04882E-08	12.669978	-0.5	-2.32958E-06	12.669978
-9	-1.91056E-08	12.813794	-0.5	-2.33183E-06	12.813794
-8.5	-1.77663E-08	12.957652	-0.5	-2.33371E-06	12.957652
-8	-1.643E-08	13.10184	-0.5	-2.3339E-06	13.10184
-7.5	-1.51239E-08	13.245841	-0.5	-2.33208E-06	13.245841
-7	-1.38804E-08	13.402161	-0.5	-2.32853E-06	13.402161
-6.5	-1.25838E-08	13.546067	-0.5	-2.32317E-06	13.546067
-6	-1.13184E-08	13.689981	-0.5	-2.31573E-06	13.689981
-5.5	-1.00698E-08	13.833802	-0.5	-2.30611E-06	13.833802
-5	-8.86878E-09	14.001516	-0.5	-2.29448E-06	14.001516
-4.5	-7.6684E-09	14.151394	-0.5	-2.27946E-06	14.151394
-4.00001	-6.49951E-09	14.30126	-0.5	-2.26181E-06	14.30126
-3.5	-5.35366E-09	14.451086	-0.5	-2.24082E-06	14.451086
-3	-4.20615E-09	14.601731	-0.5	-2.21639E-06	14.601731
-2.5	-3.10803E-09	14.751549	-0.5	-2.18843E-06	14.751549
-2.00001	-2.03769E-09	14.911609	-0.5	-2.15649E-06	14.911609
-1.50001	-9.5409E-10	15.061528	-0.5	-2.11847E-06	15.061528
-1.00001	8.886E-11	15.211308	-0.5	-2.07555E-06	15.211308
-0.50001	9.9792E-10	15.38582	-0.5	-2.02607E-06	15.38582
-1E-05	2.02314E-09	15.535698	-0.5	-1.96754E-06	15.535698
0.5	2.97162E-09	15.685525	-0.5	-1.89767E-06	15.685525
1.00001	3.88051E-09	15.835283	-0.5	-1.81663E-06	15.835283
1.49999	4.75455E-09	16.006524	-0.5	-1.72672E-06	16.006524
1.99999	5.61054E-09	16.156324	-0.5	-1.62767E-06	16.156324
2.5	6.43741E-09	16.306189	-0.5	-1.52267E-06	16.306189
3.00001	7.23657E-09	16.455989	-0.5	-1.41249E-06	16.455989
3.5	7.98848E-09	16.606676	-0.5	-1.29954E-06	16.606676
3.99999	8.70708E-09	16.756498	-0.5	-1.18574E-06	16.756498
4.49999	9.3695E-09	16.910733	-0.5	-1.0731E-06	16.910733
4.99999	1.00665E-08	17.054631	-0.5	-9.6308E-07	17.054631
5.49999	1.07153E-08	17.201349	-0.5	-8.56806E-07	17.201349
5.99999	1.1297E-08	17.351092	-0.5	-7.55549E-07	17.351092
6.5	1.18237E-08	17.510264	-0.5	-6.60755E-07	17.510264
6.99999	1.2354E-08	17.660071	-0.5	-5.72394E-07	17.660071
7.49999	1.28362E-08	17.809737	-0.5	-4.90679E-07	17.809737
7.99999	1.32924E-08	17.959463	-0.5	-4.16025E-07	17.959463
8.49999	1.37084E-08	18.104595	-0.5	-3.4893E-07	18.104595
8.99999	1.41151E-08	18.248478	-0.5	-2.89351E-07	18.248478
9.49999	1.44118E-08	18.414364	-0.5	-2.38168E-07	18.414364
9.99999	1.47866E-08	18.558242	-0.5	-1.93585E-07	18.558242
10.49999	1.50765E-08	18.702094	-0.5	-1.56029E-07	18.702094
10.99999	1.53649E-08	18.845911	-0.5	-1.24855E-07	18.845911
11.49999	1.56184E-08	19.00812	-0.5	-9.9546E-08	19.00812
11.99999	1.57823E-08	19.16938	-0.5	-7.90813E-08	19.16938
12.49999	1.59532E-08	19.336038	-0.499999	-6.26646E-08	19.336038
12.99999	1.61561E-08	19.501746	-0.499999	-4.96894E-08	19.501746
13.49999	1.63137E-08	19.665974	-0.499999	-3.94993E-08	19.665974
13.99999	1.64797E-08	19.830045	-0.499999	-3.15622E-08	19.830045
14.49999	1.66423E-08	19.995913	-0.500001	-2.54974E-08	19.995913
14.99999	1.67929E-08	20.160096	-0.500001	-2.08692E-08	20.160096
15.49999	1.69322E-08	20.324288	-0.5	-1.73278E-08	20.324288
16	1.70837E-08	20.488562	-0.499999	-1.46009E-08	20.488562
16.49999	1.7262E-08	20.652754	-0.500001	-1.25139E-08	20.652754
16.99999	1.75362E-08	20.816819	-0.5	-1.09754E-08	20.816819
17.49999	1.7726E-08	20.980988	-0.5	-9.7632E-09	20.980988
17.99999	1.7909E-08	21.14519	-0.5	-8.8433E-09	21.14519
18.49999	1.82045E-08	21.303966	-0.500001	-8.16851E-09	21.303966
18.99999	1.81964E-08	21.474094	-0.500001	-7.54386E-09	21.474094
19.49999	1.8315E-08	21.644242	-0.5	-7.06838E-09	21.644242
19.99999	1.84321E-08	21.814299	-0.5	-6.72027E-09	21.814299
